skin,replicate,hr,co_lmin,channel,CT,APG b/a,Ts/Td,RI,FWHM,IPA,AI,AGI,AUC,AUCsys,AUCdia,Tpw25/Tpi,Tpw75/Tpi,Tpw25/Tsp,Tpw50/Tsp,Tpw75/Tsp,Tdw10/Tsw10,Tdw25/Tsw25,Tdw33/Tsw33,Tdw50/Tsw50,Tdw66/Tsw66,Tdw75/Tsw75,Tdw90/Tsw90,Tsp/Tpi,Asp/Aoff,Tsp/Asp,Asp/deltaT,Asp/(Tpi-Tsp),Tu/Tpi,Tv/Tpi,Tw/Tpi,Ta/Tpi,Tb/Tpi,Tc/Tpi,Td/Tpi,Te/Tpi,Tf/Tpi,(Tu-Ta)/Tpi,(Tv-Tb)/Tpi,Au/Asp,Av/Au,Aw/Au,Ac/Aa,Ad/Aa,Ae/Aa,Af/Aa,Ap2/Ap1,(Ac-Ab)/Aa,(Ad-Ab)/Aa,AGImod,AGIinf,RIp1,RIp2,SC,IPAD,Tb-c/Tpi,Tb-d/Tpi,Tp1-dp/Tpi,Tp2-dp/Tpi
D,1,60,5,Reflectance GREEN,0.21000000000000796,-1.555364936605399,0.75,0.4166632281119674,0.20655042891224906,1.1255106698754969,-0.4141803202606604,-1.2311106263797993,4.981507214156174,2.499148727398336,2.48264575405383,0.5879396984924646,0.12999999999999545,2.785714285714663,0.9999999999998647,0.6190476190475739,4.258064516128979,3.67999999999995,3.521739130434514,1.210526315789946,1.133333333333207,1.0833333333332544,1.0000000000007105,0.21000000000000796,9.215625628453786,49.43697600566514,0.015779247950249615,0.0053855865704951315,0.125,0.27638190954773745,0.42,0.055,0.19597989949748654,0.2613065326633154,0.2613065326633154,0.33165829145730386,0.4623115577889492,0.07035175879396952,0.08000000000000002,0.03706313195649448,-0.70861591050975,0.06615234555010271,-0.5592221926914063,-0.5592221926914063,0.799554659749494,-0.1490038569259874,0.5186443122818003,0.9949444001604437,0.9949444001604437,-0.4344300942881386,-2.3562526537420716,0.8423176388105386,0.8423176388105386,-4.3780373984079075e-05,0.5627134160648146,0.065,0.065,0.22,0.09547738693467293
D,1,60,5,Reflectance IR,0.21000000000000796,-1.5395339022623489,0.7499999999999934,0.4189224263149558,0.21000000000000796,1.0182115220850751,-0.3485967781989744,-1.2073441996465166,5.134444022885068,2.5509257873973814,2.5891825254448086,0.5900000000000034,0.129999999999999,2.809523809523719,1.0,0.6190476190475739,4.258064516129943,3.7199999999998,3.5217391304347316,1.210526315789946,1.1333333333333018,1.0833333333336244,1.000000000000533,0.21000000000000796,3.1913732167358235,1.6336048727360377,0.4768749699131606,0.16287459834727266,0.12060301507537718,0.27638190954773745,0.42,0.05025125628140713,0.19597989949748654,0.2613065326633154,0.2613065326633154,0.3316582914572944,0.4623115577889426,0.07035175879396952,0.08040201005025091,0.031294606157385274,-0.7021115778750775,0.0652699145238387,-0.5562125195783487,-0.5562125195783487,0.7880540164638989,-0.1440960665249878,0.6051552337879192,0.9781376235427186,0.9781376235427186,-0.4239537233368664,-2.3271089219033643,0.5965995153265873,0.5965995153265873,-0.003229653948034357,0.45556238956720935,0.065,0.065,0.22,0.09547738693467293
D,1,60,5,Reflectance RED,0.21000000000000796,-1.5371762606984418,0.7499999999999934,0.4209932897835937,0.21000000000000796,1.0927445359540833,-0.31220728689995325,-1.191736035872556,5.624417892935663,2.689414190990049,2.9300541484253246,0.5900000000000318,0.13000000000000966,2.8095238095239092,1.0,0.6190476190476215,4.290322580645078,3.719999999999999,3.5217391304348404,1.210526315789946,1.133333333333409,1.1666666666665089,1.0000000000007105,0.21000000000000796,2.1620343043689494,4.748760206460497,0.1643877372273267,0.05602393687690836,0.1206030150753769,0.27638190954773745,0.42,0.050251256281407045,0.19597989949748654,0.2613065326633154,0.2613065326633154,0.3316582914572873,0.4623115577889426,0.07035175879396952,0.08040201005025091,0.02807664902999716,-0.698780173583918,0.06284991999261749,-0.5598091944692312,-0.5598091944692312,0.7822483218747727,-0.14184366438624757,0.6519339812768832,0.9708342784167974,0.9708342784167974,-0.41153191665666944,-2.3187024576682855,0.49244989126130434,0.49244989126130434,0.0075850506990609015,0.5386499962392257,0.065,0.065,0.21804020100503074,0.095
D,1,60,5,Transmittance IR,0.20999999999999375,-1.461382667553436,0.75,0.43492145586248976,0.2150000000000034,0.27236773450357177,-0.6489535541799698,-1.1734798666408874,1.0793940903766268,1.4358828646528439,-0.3650896820899392,0.6030150753768759,0.13065326633165716,2.857142857143244,1.0238095238095706,0.6341463414634324,4.322580645161361,3.7600000000001614,3.6086956521739144,1.263157894736905,1.1333333333334028,1.1666666666665089,1.0000000000003553,0.20999999999999375,-3.2068287336551013,4.290947230149065,0.18103039460720355,0.061924871901459455,0.12060301507537632,0.27638190954773745,0.42211055276381715,0.05,0.19597989949748654,0.2613065326633154,0.2613065326633154,0.3366834170854256,0.465,0.07035175879396952,0.08040201005025091,0.05940050977884011,-0.682516348294224,0.06852036425172772,-0.5203246783702282,-0.5203246783702282,0.7511238206707618,-0.14886092022103425,0.16852417974876055,0.9409571349268897,0.9409571349268897,-0.41941081938101865,-2.2132727289199705,4.799773846132118,4.799773846132118,-0.00021271533309505418,-0.2701652714752369,0.06532663316582885,0.06532663316582885,0.22,0.095
D,1,60,5,Transmittance RED,0.20999999999997954,-1.4133488352000039,0.7500000000000548,0.4472690054076215,0.21999999999999886,1.3830905581831257,-0.6332278143914069,-1.1634374948266681,6.7241780819914965,2.9714333157360224,3.740828349116316,0.6091370558375653,0.1349999999999909,2.904761904762253,1.047619047619038,0.6428571428571308,4.3548387096769705,3.759999999999991,3.652173913043328,1.3157894736842262,1.1333333333339901,1.076923076923447,1.0000000000003553,0.20999999999997954,-3.2063376186625256,101.46755332644139,0.007609362985297528,0.0026051307613381867,0.12,0.27638190954773745,0.42211055276381715,0.045226130653266125,0.195,0.2613065326633154,0.2613065326633154,0.3366834170854256,0.465,0.07035175879397054,0.08500000000000002,0.05915408041640745,-0.6685862141961869,0.07151870516496715,-0.49372563519214663,-0.49372563519214663,0.728842875870968,-0.16490154292668321,0.19034409025980265,0.9227025022558618,0.9227025022558618,-0.4294884117911641,-2.1409520219099702,4.427646131330066,4.427646131330066,-8.707181958314701e-06,0.8839922114311639,0.0694793359933003,0.0694793359933003,0.2194527363184084,0.09
D,1,60,6,Reflectance GREEN,0.2160804020100485,-1.3400361408486752,0.771739130434775,0.3963945405342093,0.2814070351758792,1.1730200479860824,-0.47256217417786395,-0.3916237784725043,4.494720581751599,2.2690081075300474,2.129737556904767,0.6331658291457212,0.15000000000000568,2.9302325581394673,1.3023255813953334,0.6976744186046495,4.093750000000094,3.807692307692476,3.6249999999998814,1.850000000000128,1.375000000000444,1.3076923076922573,1.1250000000000666,0.2160804020100485,-5.347972211430861,39.32998241688814,0.016835193060312375,0.006999705940366048,0.12060301507537675,0.28,0.42,0.05025125628140701,0.19095477386934587,0.25125628140703404,0.25125628140703404,0.3266331658291466,0.42,0.07035175879396952,0.09000000000000002,0.04942724071773645,-0.5054822026682066,-0.15717353793920452,-0.658448823845273,-0.658448823845273,0.37019412642471944,0.0817714324500731,0.49075896800521235,0.6801627684737612,0.6801627684737612,-0.021484661894083244,-1.711157309520524,1.0675682397077928,1.0675682397077928,-2.3976036865652067e-05,0.5384594329468672,0.06,0.06,0.29145728643215946,0.1758793969849238
D,1,60,6,Reflectance IR,0.21608040201003745,-1.3509062040346174,0.7692307692308096,0.38894135954497366,0.2750000000000341,1.0495765096653942,-0.34419656044070146,-0.4008571301649194,4.611834887880908,2.2622125919513283,2.348833347732735,0.6281407035175851,0.14999999999999858,2.9069767441860006,1.2790697674418665,0.6976744186046004,4.062500000000123,3.807692307692476,3.5833333333332544,1.8421052631577433,1.3999999999995452,1.3076923076920386,1.1250000000000666,0.21608040201003745,7.310376537621145,1.4275003795974457,0.46332991124765943,0.19243821188878002,0.12060301507537804,0.28,0.42,0.05025125628140752,0.19095477386934653,0.25125628140703404,0.25125628140703404,0.3266331658291466,0.42,0.07035175879396952,0.08542713567839402,0.03539281561925703,-0.5139293383906487,-0.1538686589804511,-0.6622455098656191,-0.6622455098656191,0.37923812674476476,0.0861179599100087,0.6359811315152009,0.6874799930366277,0.6874799930366277,-0.02491546758829309,-1.7295366221997435,0.5679487618333317,0.5679487618333317,-0.0013287820657321018,0.3866715068501645,0.06030150753768816,0.06030150753768816,0.29,0.1758793969849238
D,1,60,6,Reflectance RED,0.21608040201004988,-1.3397414178554508,0.7692307692307856,0.395893353794239,0.2814070351758792,1.1095215401325744,-0.31901068186817305,-0.3841634459322413,4.925579258777649,2.3347042239801703,2.590061100885017,0.6331658291457212,0.15075376884419756,2.9302325581394673,1.3023255813953334,0.6976744186046565,4.0937499999999964,3.8461538461537703,3.6249999999998814,1.850000000000128,1.375000000000444,1.3076923076922573,1.1250000000000666,0.21608040201004988,4.838866484963753,4.241426964816067,0.15611282657386377,0.06486678376890778,0.1206030150753769,0.28,0.42,0.05025125628140681,0.19095477386934587,0.25125628140703404,0.25125628140703404,0.3266331658291489,0.42,0.07035175879396952,0.09000000000000002,0.03327318673962655,-0.5052823772463203,-0.15633365817529093,-0.6618498199525005,-0.6618498199525005,0.3674566270764106,0.08651603751059042,0.664580200903983,0.6799551205161414,0.6799551205161414,-0.021508933487983918,-1.707520390346759,0.5185262319966923,0.5185262319966923,-0.0005532936133730408,0.45564787886257774,0.06030150753768816,0.06030150753768816,0.29145728643215946,0.1758793969849238
D,1,60,6,Transmittance IR,0.21500000000003183,-1.275356538499903,0.7802197802197725,0.4044920530611173,0.28643216080404393,0.017044535830162365,-0.5989344249923264,-0.34020032525136473,0.8423905237035243,1.3796849498025399,-0.5341354977110238,0.6400000000000432,0.15500000000000114,2.976744186046467,1.3488372093022671,0.7209302325581288,4.125000000000067,3.8846153846151807,3.708333333333136,1.9000000000000692,1.375000000000444,1.3076923076923666,1.2499999999982236,0.21500000000003183,-2.841435812229126,3.342377402260797,0.19630373776524107,0.08212801900099445,0.12,0.2814070351758781,0.42211055276381715,0.05,0.19,0.25,0.25,0.33,0.42211055276381715,0.07035175879396952,0.09045226130653228,0.06187522673542099,-0.49106279351627014,-0.1529456215933936,-0.6349605269807961,-0.6349605269807961,0.33870704230726967,0.09018688489893074,0.3498536760057175,0.6388790577971373,0.6388790577971373,-0.004024411411350077,-1.614710739307899,1.9463888275029901,1.9463888275029901,-0.00021223516699486462,-0.6191196912234824,0.06030150753768816,0.06030150753768816,0.2914572864321615,0.1758793969849238
D,1,60,6,Transmittance RED,0.21500000000003183,-1.2188928534922612,0.8620507399577166,0.426906982372457,0.30348258706466846,1.0964696015365796,-0.5696507970419906,-0.3369767063258059,8.17905281978248,3.489335027199507,4.117408850568669,0.6550000000000296,0.15920398009949982,3.0465116279069338,1.4090909090909267,0.7380952380952155,4.156250000000128,3.8888888888889825,3.7499999999998224,2.0000000000004263,1.499999999999467,1.3076923076924758,1.1250000000006217,0.21500000000003183,-2.7980101707717413,88.69636731803794,0.007267185128494469,0.0031004339794988,0.12,0.2814070351758781,0.42929292929292534,0.045226130653266125,0.18592964824120717,0.25125628140703404,0.25125628140703404,0.335,0.43216080402009854,0.07035175879396953,0.09499999999999997,0.06226363686849344,-0.466530286424935,-0.13203533291449654,-0.6104578868964712,-0.6104578868964712,0.3158874594592964,0.010910350242316149,0.37668743533126575,0.6262807449301185,0.6262807449301185,-0.014642630414262794,-1.534314064092816,1.9386699949581234,1.9386699949581234,-7.689275863171916e-06,0.6506386798378079,0.06045378407187583,0.06045378407187583,0.3,0.1809045226130645
D,1,60,7,Reflectance GREEN,0.22999999999998977,-1.0321911586438568,1.0666666666666667,0.44684798887885213,0.37688442211055107,0.5800065439914679,-0.19054331162852928,-1.1017552229884018,4.082867508067573,2.9146192195268834,1.1562769695594861,0.6834170854271394,0.2211055276381888,2.97826086956536,1.6521739130433277,0.9565217391304778,3.8285714285712706,3.6896551724135094,3.37037037036977,2.3636363636363455,1.9999999999998421,1.8125000000001332,1.4999999999994316,0.22999999999998977,-5.312402222174178,30.652945563468524,0.023193444016579,0.009687278039135244,0.11557788944723565,0.39,0.545,0.045,0.1809045226130645,0.31,0.35,0.46,0.5778894472361782,0.07035175879397054,0.21000000000000002,0.04738503898818771,-0.3202279552637749,-0.10384126601038138,-0.05000969037795304,-0.07994293241942883,0.20232921422526273,-0.03051560176423193,0.8093700541154518,0.9812221998665045,0.9511194201542483,-0.9014901244583233,-1.233983147586366,0.6808295889057729,0.6808295889057729,-1.797213980926927e-05,0.5030895411400061,0.1256281407035179,0.16999999999999998,0.32,0.22110552763818994
D,1,60,7,Reflectance IR,0.22613065326635348,-1.0202065242388692,1.0555555555555556,0.45008126351507494,0.37999999999999545,0.45678644140612346,-0.14854927412438526,-1.0809554392646028,4.420750196871888,3.042625131794328,1.3773551687675927,0.6884422110552542,0.22110552763819197,3.0222222222222177,1.6666666666666694,0.9777777777777974,3.8285714285715007,3.724137931034165,3.37037037037069,2.4090909090909265,2.0,1.8125000000004885,1.4999999999994316,0.22613065326635348,-296.7569726824416,1.2311093875061674,0.5718692033389388,0.23808397668115047,0.11557788944723565,0.39,0.545,0.045,0.18,0.3065326633165815,0.3467336683417218,0.4572864321608085,0.5778894472361782,0.07035175879396985,0.21000000000000002,0.03868573540781227,-0.3192133945448581,-0.10485517307556087,-0.05529696603321957,-0.08211402329124683,0.19900022453079075,-0.026006326683138497,0.8514414997974968,0.9647539959054696,0.9365355099003211,-0.8810548481606226,-1.2197558860668054,0.5304935726333521,0.5304935726333521,-0.0005957645540375592,0.38157498460169903,0.12562814070351747,0.16999999999999998,0.32,0.225
D,1,60,7,Reflectance RED,0.22999999999998977,-1.022428964355306,1.0555555555555782,0.451059757692321,0.3800000000000239,0.5237889606284684,-0.137980388675368,-1.0803297484133574,4.798762119805533,3.161630726600298,1.6359848032525783,0.6884422110552469,0.22110552763819197,2.9999999999997526,1.666666666666656,0.9777777777777974,3.828571428571408,3.6896551724142324,3.37037037037069,2.4090909090904864,2.0,1.8125000000004885,1.4999999999994316,0.22999999999998977,15.714442037444865,3.3958837565309117,0.21096433422591032,0.0877533092651093,0.11557788944723565,0.39,0.545,0.045,0.1809045226130645,0.3065326633165815,0.34673366834171065,0.4572864321608048,0.5778894472361782,0.07035175879396999,0.21000000000000002,0.036181580119201015,-0.3197740926144118,-0.10571589376604167,-0.05711899600245871,-0.08234469090670346,0.1986218485599057,-0.0257665122379059,0.862011954889191,0.9649261132534408,0.9378678150974239,-0.8802403105911656,-1.2209090992400096,0.492536515084687,0.492536515084687,-0.0002525450127234913,0.4487648298046472,0.1256281407035179,0.1658291457286519,0.32,0.225
D,1,60,7,Transmittance IR,0.22613065326632492,-0.9618897077984585,1.0666666666666667,0.4772104401293495,0.410000000000025,-0.226564162514445,-0.22533815068987045,-0.9908639615233114,1.0019142177281481,1.9846981750139288,-1.0064361735601528,0.7085427135678343,0.23499999999999943,3.133333333333405,1.8222222222221955,1.0444444444443994,3.914285714285473,3.7333333333339143,3.59259259259271,2.565217391304477,2.052631578947321,1.9374999999997113,1.599999999999318,0.22613065326632492,-2.3285665161388165,6.666449062449337,0.10446932246286816,0.04374658797777206,0.11055276381909497,0.3919597989949731,0.545,0.04,0.175,0.3,0.34673366834170694,0.46,0.58,0.07035175879396953,0.22000000000000003,0.06817184097015813,-0.30289024313138835,-0.10225262756611705,-0.05909015268754733,-0.09118870210382257,0.1795631826245194,-0.028250633986478303,0.7745987502327321,0.9027639275300026,0.8708430236042735,-0.8109061667907747,-1.1411261610944794,1.0799067079691707,1.0799067079691707,-5.51591028449921e-05,-0.31093481146361607,0.12562814070351702,0.175,0.32663316582914426,0.22613065326633708
D,1,60,7,Transmittance RED,0.22807458410815937,-0.9351322734125822,1.1348314606741587,0.48876324912443864,0.43283582089552664,0.9875115405662636,-0.20598014481656507,-1.0411280518178438,9.400986057179463,4.781792393960478,4.535945281021284,0.7220867208671742,0.24061085972851554,3.137949260042019,1.8976975405546486,1.04444444444446,3.861111111111023,3.7906250000000026,3.6428571428569625,2.7709790209790954,2.0999999999996857,1.937499999999753,1.4545454545459067,0.22807458410815937,-2.4792279563325175,226.4910261354666,0.0029665989867775563,0.0013056412075887385,0.10945273631840827,0.39,0.5323383084577139,0.03491293532338317,0.17085427135678316,0.29039791725158826,0.3526373235861485,0.46733668341708334,0.5714285714285661,0.0710659898477163,0.21608040201004927,0.06573196612499577,-0.3456389150385325,-0.03942768442364507,-0.0004430646031468084,-0.23483559881786525,0.29943181816035663,-0.21929837986047132,0.792668852375399,0.9160401238134842,0.7134323286239409,-0.7515890202968731,-1.2280293804269087,1.0799133090163147,1.0799133090163147,-1.652753696777753e-06,0.6720891586451601,0.11392551172215698,0.175,0.3435897435897406,0.22842639593908315
D,1,90,5,Reflectance GREEN,0.24626865671642661,-1.611000060723492,1.1960784313726076,0.3773642706531587,0.23134328358209066,1.0436435295608515,-0.37429902793198677,-1.473986262658825,7.470375747999558,3.6805702654410744,3.7667660793178595,0.39097744360901354,0.14925373134328307,1.5937500000000056,0.9393939393939107,0.6060606060605963,3.5833333333349517,1.600000000000796,3.210526315789584,1.0666666666668057,1.0,1.0,1.0,0.24626865671642661,2.3812445203512143,63.898359803355206,0.010407920153338811,0.005119847727530718,0.14285714285713846,0.3308270676691698,0.514925373134327,0.052631578947369057,0.2330827067669151,0.3157894736842008,0.3157894736842008,0.4060150375940072,0.5789473684210472,0.08955223880596992,0.09701492537313615,0.03604963281915887,-0.8326913350180082,0.1880080954217649,-0.5481091808536561,-0.5481091808536561,0.9738467079766244,-0.2721382931953068,0.5598825265124054,1.0590155383840758,1.0590155383840758,-0.5116643172398064,-2.5854982202332906,0.5586051538907607,0.5586051538907607,-0.0004023568850988262,0.4634175073705838,0.0820895522388075,0.0820895522388075,0.3007518796992517,0.14179104477611904
D,1,90,5,Reflectance IR,0.24626865671641862,-1.6054163588554178,1.1960784313727195,0.37672076451399433,0.23134328358209066,0.9279790431852882,-0.3044402374549293,-1.4735645652715845,6.450891552243286,3.363989238727348,3.093832749101743,0.3731343283582159,0.14925373134328532,1.5151515151518493,0.9393939393939107,0.6060606060606009,3.666666666666509,1.500000000000142,3.263157894737881,1.0666666666668057,1.0000000000000593,1.0000000000000089,1.0,0.24626865671641862,1.3329586192300311,2.1012042326371,0.31546814300928866,0.15563509178556523,0.14179104477612806,0.33082706766916276,0.514925373134327,0.052631578947369057,0.23308270676691012,0.31343283582091463,0.31343283582091463,0.4060150375939898,0.5789473684210348,0.08955223880597017,0.09701492537313615,0.029320171719281057,-0.8301920546280233,0.18516784445176823,-0.5459445589947989,-0.5459445589947989,0.9653321829776543,-0.2648500010058842,0.6533983014505667,1.0601313562806007,1.0601313562806007,-0.513208156666664,-2.5703767804357156,0.3749501788458525,0.3749501788458525,0.0015293096685861233,0.39558154157701675,0.0820895522388075,0.0820895522388075,0.3007518796992517,0.14179104477612206
D,1,90,5,Reflectance RED,0.24626865671642661,-1.6016717559812612,1.1960784313727195,0.3791074392651035,0.23134328358209558,0.9638894873295005,-0.2672098446808025,-1.4673573126795103,6.9003106508682714,3.520382277376574,3.391151477941053,0.6917293233082729,0.14925373134329592,2.7878787878789706,0.9393939393939403,0.6060606060606009,3.6249999999998814,3.600000000000199,3.2105263157905446,1.0666666666667992,1.0000000000000593,1.0,1.0,0.24626865671642661,1.0192282393842105,6.045430986262161,0.1098461232310644,0.05415724107419322,0.14285714285713846,0.3308270676691698,0.514925373134327,0.052631578947369057,0.23308270676691012,0.3157894736842008,0.3157894736842008,0.4060150375939898,0.5789473684210472,0.08955223880597017,0.09701492537313615,0.025837818905667526,-0.8263322777178648,0.18252335575872186,-0.5465619016146992,-0.5465619016146992,0.9607559784284327,-0.2636474861774513,0.7007728148018186,1.0580244576742799,1.0580244576742799,-0.5092057534586394,-2.562160745874187,0.3056951276750479,0.3056951276750479,0.00029699815861580694,0.41352940134533167,0.0820895522388075,0.0820895522388075,0.30075187969924855,0.14179104477612206
D,1,90,5,Transmittance IR,0.24626865671642661,-1.5902529398096215,1.2156862745097279,0.38500542331828636,0.23134328358209558,0.7315129734331233,-0.7319515819315823,-1.447650461573563,2.660402900090389,2.010721583898941,0.6496813161914479,0.6992481203007398,0.14925373134329592,2.8181818181819747,0.9393939393939511,0.6060606060606009,3.5599999999999454,3.6500000000002273,3.315789473683234,1.0666666666667992,1.0,1.0,1.0,0.24626865671642661,-3.5535756594686982,4.5955049183953625,0.14404017007036132,0.07128408745079645,0.14179104477612206,0.3308270676691729,0.514925373134327,0.05263157894736793,0.23308270676691012,0.3157894736842008,0.3157894736842008,0.41044776119402016,0.5789473684210595,0.08955223880597087,0.09701492537313615,0.0710892613559009,-0.8232068770022251,0.1860666443729716,-0.546371493884325,-0.546371493884325,0.9539107555236831,-0.26657740727028895,-0.03647053518769206,1.0446545264724338,1.0446545264724338,-0.4987607576158089,-2.543743577169151,-20.757545727819316,-20.757545727819316,-0.00027774322153329784,0.20027399985575545,0.0820895522388075,0.0820895522388075,0.30597014925372407,0.14179104477612206
D,1,90,5,Transmittance RED,0.2462686567164426,-1.5830336065355366,1.2156862745098043,0.3916522689748804,0.2330827067669168,1.1090189653338878,-0.7301635272937383,-1.4489697122756517,7.961795418902316,3.8801764359376905,4.073337623125136,0.7014925373134293,0.14925373134331396,2.8437500000004663,0.9393939393939916,0.6060606060606009,3.5600000000000023,3.6500000000002983,3.263157894736905,1.066666666666995,1.0000000000001183,1.000000000000142,1.0,0.2462686567164426,-3.5080460099482855,97.75069581638238,0.006769357156386642,0.0033520158837102264,0.14179104477612206,0.3308270676691769,0.514925373134338,0.05223880597015024,0.2330827067669151,0.31578947368420757,0.31578947368420757,0.41044776119402016,0.5820895522388045,0.08955223880597182,0.09774436090225264,0.07121379048007866,-0.8165717427587046,0.18671432060644239,-0.5395576853568598,-0.5395576853568598,0.9474616828501877,-0.2699438301506021,-0.03152037045835788,1.0429161928863908,1.0429161928863908,-0.49910527340186245,-2.5286672781380406,-23.1010046871616,-23.1010046871616,-1.2827457926014698e-05,0.5923764570808469,0.0820895522388075,0.0820895522388075,0.30597014925372407,0.14179104477612206
D,1,90,6,Reflectance GREEN,0.2556390977443133,-1.4438539966601254,1.240740740740712,0.3335000336482199,0.25563909774436105,0.8332578293268732,-0.44680380339209647,-1.0389259331847258,6.798985800093453,3.8238893394239786,2.976883384454956,0.6716417910447786,0.1641791044776111,2.6285714285714357,1.0,0.6470588235293724,3.3846153846153886,3.2380952380955863,2.1052631578949415,1.187500000000011,1.1666666666665089,1.0999999999998864,1.1666666666665089,0.2556390977443133,5.835920910308018,45.399995049932365,0.016540158706302453,0.007535997700827836,0.14179104477612206,0.3432835820895514,0.5338345864661718,0.05223880597014802,0.23880597014925312,0.32089552238805963,0.32089552238805963,0.4179104477612019,0.5895522388060062,0.09701492537313408,0.1044776119403049,0.04167534174460881,-0.7307646219941064,0.04659011964370731,-0.5642643203269183,-0.5642643203269183,0.7221386099005171,-0.14868678094264637,0.4817901889856809,0.8812188145894786,0.8812188145894786,-0.3172198666591762,-2.1653247121111767,0.6841979486081575,0.6841979486081575,-6.224159317360488e-05,0.26470823162248536,0.08270676691729067,0.08270676691729067,0.27611940298506804,0.10526315789473362
D,1,90,6,Reflectance IR,0.2537313432835998,-1.435283865884249,1.2407407407407332,0.33401122115071474,0.2556390977443571,0.6930411380989692,-0.3607049696845517,-1.036975950529869,5.721634961344249,3.41334691132773,2.3083093893556015,0.6716417910447786,0.16417910447761222,2.6470588235292642,1.0,0.6470588235293724,3.3846153846154206,3.2380952380967334,2.2499999999999822,1.1875000000000069,1.1666666666665089,1.0999999999998864,1.1666666666665089,0.2537313432835998,2.244108756415715,1.6302768781976942,0.46212595894682074,0.20986890377359269,0.14179104477612206,0.34328358208955206,0.5338345864661718,0.045112781954889686,0.23880597014925312,0.32089552238805974,0.32089552238805974,0.4179104477612019,0.5895522388059812,0.09701492537313408,0.10447761194030047,0.03376130288170394,-0.7298574906378367,0.04790357925349724,-0.5582880206573497,-0.5582880206573497,0.7187003864925103,-0.1502299881431521,0.5936012950151842,0.8807225731329701,0.8807225731329701,-0.3238866654621101,-2.154780696265042,0.4386742570817183,0.4386742570817183,-0.02024898583139196,0.13788046412848665,0.0820895522388075,0.0820895522388075,0.27611940298506804,0.10526315789473362
D,1,90,6,Reflectance RED,0.2556390977443133,-1.4310777680565347,1.2407407407406679,0.33603008469185297,0.2611940298507257,0.7327239591298965,-0.32457835564609216,-1.022737443686527,6.1580775300722586,3.5878492231785337,2.5809398890171833,0.6716417910448002,0.16417910447761416,2.647058823529381,1.0000000000003344,0.6470588235294019,3.3846153846153006,3.2857142857137056,2.1578947368421133,1.187500000000011,1.1666666666665089,1.0999999999998864,1.1666666666665089,0.2556390977443133,1.6615373116617513,4.60385105436352,0.16398249242724106,0.07428449081376376,0.14179104477612206,0.3432835820895514,0.5338345864661718,0.04511278195488776,0.23880597014924806,0.3208955223880589,0.3208955223880589,0.4179104477612019,0.5895522388059812,0.09701492537313408,0.10447761194030047,0.03043121823677506,-0.7259961211601563,0.04471978967211024,-0.5598661121055306,-0.5598661121055306,0.7132251265028978,-0.1482802274322487,0.6393317122875115,0.8737557308601123,0.8737557308601123,-0.31371800905451197,-2.1454140554754275,0.36458334757439115,0.36458334757439115,0.0012997490275819393,0.17540129117546543,0.0820895522388075,0.0820895522388075,0.2706766917293265,0.10447761194030047
D,1,90,6,Transmittance IR,0.2556390977443133,-1.395934602723583,1.2592592592591851,0.3458647959617703,0.261194029850757,0.518893364527542,-0.7641910135978521,-0.9995754491146663,2.0490062073262636,2.0118946960306463,0.024663332953394512,0.6865671641791292,0.1641791044776284,2.705882352941137,1.0294117647058554,0.6470588235294019,3.3846153846154854,3.333333333333875,1.8947368421052475,1.187500000000011,1.076923076923447,1.090909090908997,1.000000000001624,0.2556390977443133,-3.0888234115645337,4.292351372519579,0.1727262340049375,0.0796619771292353,0.14179104477612206,0.34328358208955867,0.5373134328358196,0.04477611940298591,0.23880597014924806,0.32089552238805974,0.32089552238805974,0.42105263157894346,0.5970149253731328,0.09701492537313434,0.1044776119403049,0.07187987373946479,-0.7150992751312184,0.04826949481820153,-0.5495165817024258,-0.5495165817024258,0.6918430853309254,-0.15145925614506364,0.006105702032240521,0.8588321798010976,0.8588321798010976,-0.3108259386702458,-2.088533576156454,89.85898320387072,89.85898320387072,-0.00023747840557729032,-0.04453089087973805,0.0820895522388075,0.0820895522388075,0.27611940298507465,0.10447761194030047
D,1,90,6,Transmittance RED,0.2556390977443452,-1.3686873315075727,1.254545454545382,0.3544819596191312,0.2631578947368511,0.9565223739593658,-0.7499675436479658,-0.9766861795976128,8.681378221376871,4.518620179513639,4.18222890948964,0.6992481203007355,0.16541353383458404,2.7352941176468226,1.0294117647058763,0.6470588235294314,3.3846153846154854,3.3333333333347768,2.649999999999261,1.1875000000005773,1.1538461538460194,1.090909090909138,1.000000000000812,0.2556390977443452,-3.1415597231364125,103.44915584896948,0.007191752828467401,0.0033108541016899804,0.14179104477611978,0.34328358208955867,0.5373134328358196,0.04477611940298591,0.23308270676692008,0.3208955223880595,0.3208955223880595,0.42105263157895245,0.5970149253731455,0.09701492537313615,0.1111111111111139,0.07122733287728189,-0.7079482167337872,0.05067416012844451,-0.5357851572021909,-0.5357851572021909,0.6799397752478973,-0.1601935779092281,0.029050871241499337,0.8349942150497826,0.8349942150497826,-0.30142935797953074,-2.045245169284774,19.22430665763667,19.22430665763667,-9.78354161476347e-06,0.41573560254365594,0.08270676691729421,0.08270676691729421,0.2761194029850739,0.10447761194029825
D,1,90,7,Reflectance GREEN,0.26119402985069434,-1.3265911437331448,1.0161290322580756,0.36130543030757295,0.2835820895522407,0.8492075823952727,-0.45128853538758373,-0.6652587156623874,6.404623447482941,3.5549824006377753,2.8452476851467816,0.5820895522387964,0.1716417910447929,2.2352941176471965,1.0882352941176505,0.6764705882352302,3.346153846153981,2.5454545454548976,2.1500000000001562,1.374999999999778,1.1538461538464566,1.090909090909279,1.0,0.26119402985069434,12.058090109366493,39.35495049864356,0.023957432405375956,0.008879443354871007,0.14179104477612206,0.34328358208955867,0.526315789473668,0.04511278195488583,0.23308270676691012,0.31343283582091463,0.31343283582091463,0.41791044776118413,0.5671641791044821,0.09701492537313408,0.11194029850746241,0.044571169333285775,-0.6296263287145988,-0.0908089051531964,-0.5897090951788327,-0.5897090951788327,0.5238220994850254,-0.07585250395568688,0.497505618806878,0.7387318147615184,0.7387318147615184,-0.1477991738632847,-1.851226088085785,0.7480609517815748,0.7480609517815748,-5.006218248376468e-05,0.2511992985937699,0.0820895522388062,0.0820895522388062,0.2164179104477652,0.05263157894736681
D,1,90,7,Reflectance IR,0.2611940298507257,-1.3233546770944529,1.016129032258044,0.3621460770935668,0.2835820895522407,0.706434057454345,-0.3635779222716231,-0.6741102028936962,5.572045867635113,3.283969466417772,2.286243989414757,0.5820895522387964,0.17164179104478924,2.257142857142769,1.1142857142856029,0.6571428571429732,3.346153846153981,2.5454545454548976,2.1500000000001562,1.3749999999999,1.153846153846238,1.090909090909279,1.0,0.2611940298507257,2.949596688232977,1.4899214524478062,0.6334517409435773,0.2357133213769826,0.14179104477612206,0.34328358208955867,0.5223880597015245,0.04511278195488583,0.23308270676691012,0.3157894736842008,0.3157894736842008,0.41353383458647114,0.5671641791044821,0.09701492537313408,0.11194029850746272,0.03598840670577172,-0.6279487960774851,-0.09249144214863028,-0.5831553454208102,-0.5831553454208102,0.5202706229134676,-0.07423731257436933,0.6035918826402027,0.7414283973891099,0.7414283973891099,-0.15893584869953578,-1.8442323169989623,0.48772634498625045,0.48772634498625045,-0.004025613084688786,0.1251331724051935,0.0820895522388075,0.0820895522388075,0.2164179104477652,0.05263157894736681
D,1,90,7,Reflectance RED,0.2611940298507257,-1.3240878346854936,1.015873015873148,0.3642465078280186,0.2835820895522453,0.7412281960010564,-0.3277551313114574,-0.668601643464932,5.909783641027428,3.413036262115366,2.5026021833393517,0.5820895522388053,0.17164179104478924,2.2571428571426067,1.1142857142856029,0.6764705882352302,3.346153846153981,2.5454545454548976,2.1500000000001562,1.3749999999999918,1.1538461538464566,1.090909090909279,1.0,0.2611940298507257,2.0556377700396524,4.2357084081262455,0.22269843166825953,0.08277916311039546,0.14179104477612206,0.34328358208955867,0.5223880597015023,0.04511278195488583,0.23308270676691012,0.3157894736842008,0.3157894736842008,0.41353383458647114,0.5671641791044777,0.0970149253731346,0.11194029850746268,0.03243014060330896,-0.6261372242944214,-0.09384591165865175,-0.583338351843437,-0.583338351843437,0.5189531366548328,-0.07387444402542262,0.6459902716610026,0.7390375277306866,0.7390375277306866,-0.1555749649811911,-1.8423405800189316,0.40833618485546697,0.40833618485546697,0.00726577485855211,0.16275158135438883,0.0820895522388075,0.0820895522388075,0.2164179104477652,0.05263157894736681
D,1,90,7,Transmittance IR,0.255639097744377,-1.2789275062258223,1.0322580645161081,0.3752567074974434,0.29104477611940344,0.3867066599007673,-0.7254732415176175,-0.625082490324943,2.0140367555520524,2.1057192555188067,-0.09102799537284412,0.5970149253731539,0.1791044776119254,2.323529411764659,1.1428571428570036,0.6857142857142672,3.3846153846153006,2.6363636363639182,2.2999999999990903,1.4374999999995337,1.2307692307692077,1.1818181818179938,1.0,0.255639097744377,-2.955019436987881,4.874451471740896,0.18985174345492833,0.07087039620789666,0.14179104477611942,0.34328358208955867,0.526315789473668,0.04477611940298543,0.23134328358209386,0.31343283582090137,0.31343283582090137,0.417910447761193,0.5671641791044882,0.0970149253731346,0.11194029850746479,0.07275854058566614,-0.6100156678465105,-0.09458035793101938,-0.5716845047449145,-0.5716845047449145,0.4912675932695286,-0.07272257337213298,0.13807934441548994,0.7063915959149454,0.7063915959149454,-0.1328178805427613,-1.7714170056196772,4.8966249668988615,4.8966249668988615,-0.00018531068179622112,-0.21226674890625913,0.0820895522388075,0.0820895522388075,0.21804511278195515,0.05263157894736793
D,1,90,7,Transmittance RED,0.25925925925925614,-1.2576423081613264,1.0491803278688954,0.3799748706605805,0.29629629629628695,1.0296884275727918,-0.6947152365580995,-0.6020243493911489,9.373585630100623,4.718181760409964,4.649529489291791,0.6060606060606178,0.179104477611936,2.3428571428571616,1.1428571428573748,0.685714285714287,3.307692307692476,2.681818181817994,2.3000000000003125,1.4117647058825102,1.2307692307692475,1.1818181818179938,1.0000000000004061,0.25925925925925614,-3.103839782947471,133.85490137879532,0.006899086666010522,0.0026159165400400012,0.14179104477611604,0.3458646616541247,0.5263157894736905,0.04477611940298401,0.2313432835820914,0.31343283582090137,0.31343283582090137,0.417910447761193,0.5714285714285722,0.09701492537313615,0.11278195488721757,0.07089816010102704,-0.6013134407541435,-0.088276953937885,-0.5673236885972525,-0.5673236885972525,0.4754889016545221,-0.10054249848543323,0.17836866018509176,0.6987743628079728,0.6987743628079728,-0.12669033439688546,-1.7358539872803147,3.6640952247188747,3.6640952247188747,-6.8444549366723335e-06,0.472306632584373,0.08208955223880754,0.08208955223880754,0.22388059701492005,0.052631578947368494
D,1,120,5,Reflectance GREEN,0.2799999999999727,-1.4954057591714898,2.3333333333332797,0.17141263844351073,0.2599999999999909,0.7349167457334342,-0.33681233163174695,-1.2420368234499397,8.93976285836018,5.152458349931514,3.7787369552873415,0.36000000000001364,0.17000000000001592,1.285714285714329,0.9285714285714866,0.6071428571428916,1.6190476190476835,1.0588235294119712,1.06249999999995,1.0,1.0,1.0000000000007105,1.0,0.2799999999999727,0.9939050437719843,88.22870461141537,0.006651124252687333,0.004378617685692372,0.16,0.3838383838383858,0.6262626262626205,0.05,0.2626262626262602,0.36363636363636026,0.36363636363636026,0.48,0.7070707070707005,0.11,0.12,0.02966889184711438,-0.9099181574242221,0.13304346823197416,-0.5553138527022485,-0.5553138527022485,0.8585243918703932,-0.1887610673783453,0.6158952601252758,0.9406043452062098,0.9406043452062098,-0.38476012495419776,-2.3536503706025353,0.15727837583006216,0.15727837583006216,2.2199625762334042e-05,0.17996478056874599,0.09999999999999998,0.09999999999999998,0.3939393939393903,0.19191919191920118
D,1,120,5,Reflectance IR,0.28000000000000114,-1.4921336394647036,2.4782608695652173,0.1767635148459312,0.2599999999999909,0.6558265722568696,-0.26442716540484423,-1.2255058227091973,7.54055413210655,4.567615935791604,2.96832482542664,0.36000000000001364,0.17000000000001592,1.2857142857142785,0.9285714285714866,0.6071428571428608,1.5714285714289193,1.1176470588234113,1.0624999999999556,1.0,1.0,1.1249999999991118,1.0,0.28000000000000114,0.6436266497660519,2.946282367812299,0.1923185901771227,0.13157514341507948,0.16,0.38383838383840235,0.6262626262626205,0.05,0.2626262626262602,0.36363636363636026,0.36363636363636026,0.48,0.7,0.11,0.12,0.023307929866361987,-0.9063129293780944,0.12627074417609194,-0.5524922867552874,-0.5524922867552874,0.8509000807187972,-0.1391836067855803,0.7074026215323275,0.9324907700448543,0.9324907700448543,-0.38202360433407273,-2.3436120270631977,0.10822255358570991,0.10822255358570991,0.0003311430526855509,0.10453914581771051,0.09999999999999998,0.09999999999999998,0.41,0.21212121212121016
D,1,120,5,Reflectance RED,0.28000000000000114,-1.4905722134228463,2.4782608695652173,0.178002254946161,0.2600000000000051,0.6645887987668296,-0.2310345156046999,-1.2356594205454896,7.7964045847958365,4.697017519145193,3.100180818166817,0.36000000000001364,0.17000000000001592,1.2857142857142825,0.9285714285714866,0.6071428571428762,1.5714285714284362,1.1176470588234113,1.0624999999999876,1.0,1.000000000000071,1.1249999999991118,1.0,0.28000000000000114,0.5234615983770778,8.360075772282688,0.06792377155592755,0.04642308406905637,0.16,0.39,0.6262626262626205,0.05,0.2626262626262602,0.36363636363636026,0.36363636363636026,0.48,0.83,0.11,0.12,0.02042947026855736,-0.9038139676897872,0.12507637861591808,-0.5492840043941223,-0.5492840043941223,0.8457625771149002,-0.21283033001899648,0.7474668505895325,0.9361054780552813,0.9361054780552813,-0.3904582331947003,-2.3361796228632574,0.08940681608516302,0.08940681608516302,8.752445971052217e-05,0.11940947880697028,0.09999999999999998,0.09999999999999998,0.41,0.21
D,1,120,5,Transmittance IR,0.28000000000000047,-1.4886959869850622,2.4782608695652173,0.17907361643360617,0.2599999999999998,0.6476888253078158,-0.8065651172050394,-1.2231843204053237,6.561720187815222,4.14073379376212,2.4358210201516535,0.36000000000001364,0.17000000000001592,1.2857142857143111,0.9285714285714866,0.6071428571428916,1.5714285714286487,1.1176470588234113,1.0624999999999556,1.0,1.000000000000142,1.1249999999991118,1.0,0.28000000000000047,-6.095851152197537,5.85597191382189,0.09669425905751841,0.06625990936016923,0.16,0.38383838383839136,0.6262626262626205,0.05,0.2626262626262602,0.36363636363636026,0.36363636363636026,0.48,0.83,0.11,0.12,0.07111689815852379,-0.904056580421958,0.1265839043262639,-0.5514809368651087,-0.5514809368651087,0.846178258266919,-0.22389387905078983,-0.14088986032850043,0.934107279628091,0.934107279628091,-0.38065868716938395,-2.3351524910538313,-2.146111044439855,-2.146111044439855,-0.0002871462492548563,0.09375315583059585,0.09999999999999998,0.09999999999999998,0.41,0.21212121212121016
D,1,120,5,Transmittance RED,0.2799999999999727,-1.4871668409313954,2.333333333333245,0.17377313874981848,0.2600000000000193,0.7598355014316288,-0.8151435048675086,-1.2298099140281902,9.422688743547122,5.4003747019506045,4.0177156625492545,0.36000000000001364,0.17000000000001592,1.2857142857144597,0.9285714285714866,0.6071428571429731,1.649999999999968,1.111111111111109,1.0625000000000333,1.0000000000000546,1.0000000000005684,1.1249999999991118,1.0,0.2799999999999727,-5.732684508324323,116.45198248437597,0.005032899731566571,0.003316647792989776,0.16,0.38383838383840235,0.63,0.05,0.2626262626262602,0.36363636363636026,0.36363636363636026,0.48,0.81,0.11,0.12,0.07192401935733134,-0.9019907995583052,0.12782195327077714,-0.5539378711195323,-0.5546429948297883,0.8448717228287556,-0.21665905397964272,-0.15543296447861618,0.9375425165474309,0.9371210275515239,-0.3867741691243447,-2.3287338752937257,-1.86853073592507,-1.86853073592507,-1.407358959987038e-05,0.21762749668936954,0.09999999999999998,0.09999999999999998,0.3939393939393903,0.1980198019801998
D,1,120,6,Reflectance GREEN,0.30303030303031175,-1.6353980250120093,1.9677419354838706,0.08230796530579573,0.2727272727272768,0.5885954833500655,-0.3953242556383489,-1.3992485715013334,8.487611548327486,5.3662208900055965,3.1106232949958863,0.37623762376237513,0.18000000000000682,1.2333333333333019,0.9000000000000805,0.5968749999998513,1.9130434782609447,1.052631578947396,1.0000000000001672,1.000000000000016,1.0,1.0,1.0,0.30303030303031175,1.3288845199348007,75.72719818493718,0.010460708180857523,0.005791920498476738,0.18,0.42,0.67,0.07,0.29,0.4,0.4,0.52,0.79,0.11000000000000001,0.13,0.03149674336910279,-0.9546549795458595,0.1282012310853879,-0.5856901195531364,-0.5856901195531364,0.9514704250525419,-0.23083930858462814,0.5346107104375858,1.0451470626188777,1.0451470626188777,-0.4570155046049864,-2.587734429260751,0.1039818848406566,0.1039818848406566,4.608316876059644e-05,-0.009354719778064069,0.1020408163265287,0.1020408163265287,0.29,0.08080808080808007
D,1,120,6,Reflectance IR,0.30303030303031175,-1.6356153476045265,1.9062500000000002,0.07859355284236186,0.27272727272725183,0.519343137270334,-0.3093852721415403,-1.399238340393496,7.0885672273315645,4.719500915739705,2.3894190847210868,0.37999999999999545,0.18000000000000682,1.2333333333333019,0.9000000000000757,0.5999999999996969,1.8636363636364548,1.0000000000005984,1.0000000000000209,1.0,1.0,1.0,1.0,0.30303030303031175,0.8065987349178025,2.676756662817468,0.2993521829406577,0.16336486298874772,0.18,0.42,0.67,0.07,0.29,0.4,0.4,0.52,0.79,0.10999999999999999,0.13,0.02465352729741476,-0.9540965643325701,0.12615539857132826,-0.5855181282117528,-0.5855181282117528,0.947697153036524,-0.22344148574238692,0.6493636249872234,1.041195659794115,1.041195659794115,-0.46023261717936326,-2.581775059549878,0.06152718547486787,0.06152718547486787,0.0004923886063631363,-0.06675904667341062,0.10101010101010592,0.10101010101010592,0.28282828282828026,0.08
D,1,120,6,Reflectance RED,0.30303030303031175,-1.6321525252523796,1.9375000000000002,0.0814034272533795,0.27272727272728053,0.5267503450732259,-0.2743817532886893,-1.3839756100144498,7.381781179670039,4.875829548581159,2.512927492081952,0.37999999999999545,0.18000000000000682,1.2333333333333019,0.9000000000001043,0.5999999999996969,1.8636363636359878,1.0000000000005984,1.0000000000001672,1.0000000000001015,1.0,1.0,1.0,0.30303030303031175,0.6562941915522781,7.524796196533693,0.1060086232799464,0.058078701292581206,0.18,0.42,0.67,0.07,0.29,0.4,0.4,0.52,0.79,0.10999999999999999,0.13,0.021846885661822107,-0.9509767566035048,0.12294571483972769,-0.5905221730137912,-0.5905221730137912,0.9428389934299339,-0.22346303161904751,0.6939698626350388,1.0378173414543448,1.0378173414543448,-0.4473184202265227,-2.574108266102688,0.05201137888228344,0.05201137888228344,0.00012841362023206066,-0.06788201605503813,0.10101010101010138,0.10101010101010138,0.29,0.08
D,1,120,6,Transmittance IR,0.30693069306930976,-1.629924716963147,1.9062500000000002,0.07989437667317514,0.27272727272732494,0.5162385777870406,-0.8536766605691959,-1.387436880589324,5.396866438948157,3.8999528646042982,1.4957827384418276,0.37999999999999545,0.18000000000000682,1.2258064516132876,0.9000000000002653,0.5806451612906302,1.8636363636362463,1.000000000000299,1.0000000000000417,1.0,1.0,1.0,0.9999999999977263,0.30693069306930976,-5.324960378560062,6.1353201596528,0.13180394267764897,0.07216824824194776,0.18,0.42,0.67,0.07,0.29000000000000026,0.4,0.4,0.52,0.79,0.10999999999999999,0.13,0.06782974484853915,-0.9524360571653675,0.12775442610906768,-0.5817989879731171,-0.5817989879731171,0.9431362852087707,-0.23133771247332915,-0.2620747908881992,1.035306775324583,1.035306775324583,-0.44979751057839923,-2.5729207227234783,-0.5551706916800057,-0.5551706916800057,-0.00026497869685109866,-0.07027016291084279,0.11000000000000004,0.11000000000000004,0.28282828282828026,0.08
D,1,120,6,Transmittance RED,0.3069306930693033,-1.6247243943661396,2.0666666666666664,0.09077670351292524,0.2772277227722527,0.6230610584117391,-0.8469822990846916,-1.392319350581583,9.51830122730141,5.866490684357805,3.6263918170119416,0.37999999999999545,0.18181818181812961,1.2333333333333019,0.9000000000002653,0.5937499999997224,1.8181818181814893,1.0526315789473213,1.0000000000001672,1.0,1.0,1.0,1.0,0.3069306930693033,-5.382926094130566,134.33638866920438,0.005773684959817742,0.0032952895055647774,0.18,0.42,0.6767676767676706,0.06930693069306994,0.2929292929292902,0.4,0.4,0.52,0.79,0.1111111111111101,0.12999999999999995,0.06742696784006791,-0.9531235859499045,0.1313110909576255,-0.588117069008423,-0.588117069008423,0.9471380850140001,-0.2621146781206847,-0.250913343423249,1.038161994258511,1.038161994258511,-0.44405861301517857,-2.5697171402096943,-0.6567810864680584,-0.6567810864680584,-1.2094428264349554e-05,0.03849316003233161,0.10679611650485718,0.10679611650485718,0.3,0.08823529411764494
D,1,120,7,Reflectance GREEN,0.32999999999992724,-1.6568396912603895,2.357142857142857,0.08641796245643181,0.2929292929292915,0.46951722278506003,-0.44581291584510463,-1.3282407343890419,8.222996676032933,5.659964717757959,2.5630319582749737,0.40594059405943433,0.19191919191913046,1.2424242424243364,0.9062499999999944,0.5937499999999001,1.6666666666668246,1.0500000000000995,1.055555555555503,1.0714285714280785,1.0909090909084802,1.0000000000002842,1.0,0.32999999999992724,1.8704946755481882,65.62154517389263,0.012711349252033469,0.007439124902256623,0.19,0.45,0.71,0.08,0.31313131313131026,0.42,0.42,0.55,0.81,0.11881188118811989,0.1313131313131301,0.03377557030816204,-0.9255506246014426,0.06768103994663537,-0.6126241887338557,-0.6126241887338557,0.9036031913195338,-0.22369801629103833,0.4710140987610648,1.0387665820965841,1.0387665820965841,-0.4282980001675113,-2.5587945111071777,0.14193509157922385,0.14193509157922385,0.0001816005088041964,-0.14398510384744734,0.10999999999999999,0.10999999999999999,0.3,0.08
D,1,120,7,Reflectance IR,0.3299999999999841,-1.6644324017437295,2.357142857142857,0.08303085335981468,0.29292929292927034,0.4061542456949418,-0.34650969399896425,-1.3323405788337987,6.9773704186402945,4.999028259560873,1.9825855937751529,0.4040404040404922,0.19000000000000483,1.242424242424292,0.9062499999999944,0.575757575757868,1.8399999999999181,1.0500000000000995,1.055555555555503,1.0714285714282958,1.090909090908997,1.0000000000011369,1.0,0.3299999999999841,1.018571923205736,2.4806443573578583,0.3395376587314743,0.1974742210061677,0.19,0.45,0.71,0.08,0.31313131313131026,0.42,0.42,0.55,0.81,0.12,0.1313131313131301,0.02618065346964077,-0.9287109610047221,0.06828577132266257,-0.6230468056914056,-0.6230468056914056,0.9080525364940094,-0.2207611880076685,0.6049981239039957,1.0389971102006264,1.0389971102006264,-0.41898614910420584,-2.570826359679114,0.07879942866634572,0.07879942866634572,0.0007559050374229034,-0.21370218924926904,0.10999999999999999,0.10999999999999999,0.29292929292930703,0.08
D,1,120,7,Reflectance RED,0.3299999999999841,-1.6600195584530526,2.357142857142857,0.08571923869439718,0.2929292929292936,0.4069755441265837,-0.3098005158057057,-1.323345371870786,7.190046177348387,5.11271872085643,2.060237669971354,0.4099999999999966,0.19000000000001194,1.242424242424292,0.9062500000000389,0.5757575757576697,1.8333333333332544,1.0500000000000995,1.055555555555503,1.0714285714280785,1.090909090908997,1.0000000000005684,1.0,0.3299999999999841,0.8259115083533923,6.924764549117976,0.12185279590171821,0.07091274319830292,0.19,0.45,0.71,0.08,0.31313131313131026,0.42,0.42,0.55,0.81,0.12,0.1313131313131301,0.023440546515627023,-0.9245488064331614,0.06422317746162871,-0.6263786673408643,-0.6263786673408643,0.9023961396730739,-0.21919536618972277,0.6523378717486069,1.035930948478032,1.035930948478032,-0.409694780287292,-2.56189541234813,0.06665557895838063,0.06665557895838063,0.00018883836041374544,-0.21503780860986538,0.10999999999999999,0.10999999999999999,0.3,0.08
D,1,120,7,Transmittance IR,0.3299999999999841,-1.6518355573176713,2.357142857142857,0.08528755613082051,0.2929292929293109,0.4012715047492747,-0.8864860653466888,-1.3333926063277315,5.080866625231956,3.995505006642478,1.0895533068069536,0.4099999999999966,0.19000000000005457,1.242424242424292,0.9062500000000833,0.5937499999999528,1.8400000000001455,1.0500000000000995,1.055555555555503,1.0000000000007578,1.090909090908997,1.000000000000142,1.0,0.3299999999999841,-4.399065015337229,6.447421668733377,0.13076458018046921,0.07613889871648334,0.19,0.45,0.71,0.07070707070707209,0.31313131313131026,0.4242424242424203,0.4242424242424203,0.55,0.81,0.12,0.1313131313131301,0.0668868842374254,-0.9261906827286259,0.07069885345158444,-0.6156022207059169,-0.6156022207059169,0.9040983478516247,-0.23298011830157905,-0.29313038244952727,1.0390584399394969,1.0390584399394969,-0.42084922626218124,-2.554553035167547,-0.5498908770623295,-0.5498908770623295,-0.00022510260499152568,-0.21845039632261487,0.10999999999999999,0.10999999999999999,0.3,0.08
D,1,120,7,Transmittance RED,0.3299999999999841,-1.6354583052858271,2.5384615384613607,0.09181967693258888,0.29702970297026454,0.5030762557138625,-0.8611562706659301,-1.3106409468048015,9.675388478183418,6.467712606231511,3.2291059283212085,0.410000000000025,0.19387755102040224,1.2499999999999978,0.9062500000000833,0.5937499999999334,1.4782608695651152,1.0526315789473213,1.055555555555503,1.0333333333332828,1.0,1.0,1.0,0.3299999999999841,-4.6320927810268255,153.10183614959325,0.005311277892223705,0.0032019044715395992,0.19,0.45,0.7142857142857424,0.07070707070707007,0.3131313131313125,0.4242424242424203,0.4242424242424203,0.5544554455445595,0.81,0.11881188118811989,0.1340206185567012,0.06563416735231858,-0.9233524043816522,0.07901434791930452,-0.6090545834051055,-0.6090545834051055,0.9012164639695084,-0.26169673602493404,-0.25391542484540575,1.0253231428606586,1.0253231428606586,-0.41708626777154045,-2.532128059713024,-0.6750139001787744,-0.6750139001787744,-9.574324208499054e-06,-0.10362142275541716,0.10999999999999999,0.10999999999999999,0.30927835051546426,0.08163265306122297
D,2,60,5,Reflectance GREEN,0.21000000000000796,-1.5670791911650634,0.7500000000000066,0.4127356728470261,0.20603015075375192,1.104402130876317,-0.4164176974733735,-1.2569928065771838,4.738390615227215,2.427794713344709,2.3156573342522813,0.5850000000000364,0.12999999999999545,2.7857142857142785,0.9761904761904987,0.6097560975609807,4.2580645161290205,3.67999999999995,3.4782608695654216,1.2222222222220116,1.133333333333207,1.0833333333332544,1.000000000001421,0.21000000000000796,8.843775128091924,44.524773853519534,0.017309341465031918,0.0059766156301262,0.125,0.27638190954773745,0.42,0.055,0.19597989949748654,0.2613065326633154,0.2613065326633154,0.335,0.465,0.07035175879396952,0.08000000000000002,0.03688341867203748,-0.7178344951186177,0.07379541823146389,-0.5595659563950411,-0.5595659563950411,0.8157312846216093,-0.1619013909356471,0.5146205338546468,1.0060312869179926,1.0060312869179926,-0.4435572131609828,-2.3826761773432814,0.841979263177734,0.841979263177734,-4.985354832889925e-05,0.5405908258997728,0.065,0.065,0.22110552763818994,0.09595959595959508
D,2,60,5,Reflectance IR,0.21000000000000796,-1.5508904121225602,0.75,0.41569031155399233,0.20603015075376618,1.0381928951936594,-0.34276392181785087,-1.2526579401208022,5.196950735674395,2.5634743960968005,2.644491105409522,0.5879396984924676,0.12999999999999545,2.785714285714595,0.976190476190531,0.6190476190475739,4.258064516128979,3.680000000000007,3.4782608695654216,1.2105263157895838,1.066666666666995,1.0833333333332544,1.0000000000007105,0.21000000000000796,2.8865060855443554,1.6897879819561308,0.4598232696444275,0.1575615523276999,0.12060301507537978,0.27638190954773745,0.42,0.05025125628140752,0.19597989949748654,0.2613065326633154,0.2613065326633154,0.335,0.465,0.07035175879396952,0.08040201005025091,0.030497519409277446,-0.7131992149766765,0.07349706356515943,-0.5602945801753391,-0.5602945801753391,0.8083251402542778,-0.15649307525282147,0.611586720318134,0.9963289689176715,0.9963289689176715,-0.4322050928698135,-2.358459633272376,0.5723159578180923,0.5723159578180923,-0.004157989835193525,0.482962833407135,0.065,0.065,0.22,0.09547738693467293
D,2,60,5,Reflectance RED,0.21000000000000796,-1.5481427085846855,0.75,0.41907316898725216,0.20999999999997954,1.0907125161237874,-0.3139619626647551,-1.243366032195288,5.580265922345879,2.676147263275996,2.9058189487767825,0.5900000000000034,0.129999999999999,2.8095238095237804,0.9999999999999323,0.6190476190475949,4.258064516128979,3.7199999999999136,3.521739130434514,1.210526315789946,1.1333333333333369,1.0833333333335011,1.000000000001421,0.21000000000000796,2.1793417520725584,4.650854537292694,0.16723343351434228,0.05724841674800503,0.12060301507537804,0.27638190954773745,0.42,0.05025125628140717,0.19597989949748654,0.2613065326633154,0.2613065326633154,0.335,0.465,0.07035175879396952,0.08040201005025091,0.028092792689454048,-0.7088579066451541,0.07088284264720816,-0.5553149360154722,-0.5553149360154722,0.8037641189091334,-0.15519975572322528,0.6481954543206487,0.9915230741676802,0.9915230741676802,-0.4365158405331375,-2.3511162271680908,0.4965144641585925,0.4965144641585925,0.008169600612403653,0.5315886632421964,0.065,0.065,0.22,0.09547738693467293
D,2,60,5,Transmittance IR,0.21000000000000796,-1.4700676582718675,0.75,0.4335365162539208,0.21105527638194516,0.24447070339551155,-0.6488051969124788,-1.211278253551839,0.8807535698647019,1.3772188539200425,-0.49365237938457374,0.6030150753768474,0.1306532663316531,2.8571428571429007,1.0238095238095013,0.6190476190476577,4.322580645161178,3.759999999999991,3.6086956521738056,1.2631578947368303,1.1333333333333555,1.1666666666665089,1.0,0.21000000000000796,-3.2288658268750536,4.2874677910724,0.18101253410138415,0.06206870352540799,0.12060301507537632,0.27638190954773745,0.42211055276381715,0.05,0.19597989949748654,0.2613065326633154,0.2613065326633154,0.3366834170854256,0.465,0.07035175879396952,0.08040201005025126,0.05910147115396721,-0.6914737142626829,0.07616270197098038,-0.5149428745008205,-0.5149428745008205,0.7689559972286021,-0.16042752415559255,0.16190721697650107,0.9568772113085117,0.9568772113085117,-0.4430150854135154,-2.2396438124572913,5.009424107178755,5.009424107178755,-0.00021415825048852737,-0.2620323180537256,0.06532663316582885,0.06532663316582885,0.22110552763818994,0.095
D,2,60,5,Transmittance RED,0.211055276381888,-1.4208623788635342,0.7549019607843003,0.44772778729731777,0.21782178217821865,1.4860641795718352,-0.6269342882826155,-1.198458842308068,8.609298924006907,3.464966732162377,5.008095618378118,0.6100000000000136,0.13432835820895547,2.9047619047619886,1.0476190476190026,0.6428571428570752,4.333333333333207,3.759999999999991,3.6521739130430806,1.2777777777774268,1.1333333333336113,1.076923076923447,1.0000000000007105,0.211055276381888,-3.2043515503333952,100.14500224533586,0.007757177440946109,0.002671397737757412,0.12,0.28,0.42211055276381715,0.045226130653266444,0.19597989949748654,0.265,0.265,0.33830845771144435,0.465,0.07070707070707209,0.08415841584158489,0.05887350403152778,-0.6755797725515147,0.08039009212577375,-0.4948257435147838,-0.4948257435147838,0.7467730776479957,-0.1919042709133961,0.18732148053724784,0.937599787628646,0.937599787628646,-0.4620849130388579,-2.172253168477853,4.553806116233808,4.553806116233808,-8.88485032060578e-06,0.9722917674326482,0.06632653061224511,0.06632653061224511,0.21717171717171713,0.08585858585858508
D,2,60,6,Reflectance GREEN,0.21999999999999886,-1.3768219600906404,0.7954545454545373,0.3808291856961438,0.27638190954774317,1.1534193434397075,-0.40902601746782463,-0.45579082531086756,4.577931653222782,2.2654310692063553,2.2606222935804436,0.6299999999999955,0.15000000000000568,2.863636363636728,1.2727272727272845,0.6818181818182112,4.03125000000015,3.769230769230793,3.5416666666666434,1.8000000000001706,1.3749999999996003,1.3076923076914668,1.1249999999999112,0.21999999999999886,-21.43020978032328,34.37572411379976,0.01918275397906248,0.008158191038072055,0.12562814070351702,0.2814070351758786,0.425,0.055,0.19597989949748654,0.2562814070351747,0.2562814070351747,0.3316582914572849,0.425,0.07035175879396952,0.0854271356783919,0.041738216899916185,-0.5224073944702966,-0.1512452686465477,-0.6622172019294479,-0.6622172019294479,0.40613279444463035,0.06305078923304291,0.5604781048456107,0.714970624540118,0.714970624540118,-0.050441697701601326,-1.7832932020837875,0.766580095257454,0.766580095257454,-3.622044799555704e-05,0.5179484599715132,0.06,0.06,0.2964824120603001,0.1809045226130645
D,2,60,6,Reflectance IR,0.21999999999999886,-1.3640171912877626,0.788888888888889,0.3833355910490428,0.28000000000000114,1.0382524649166258,-0.33823327775334655,-0.43120974796491673,4.633104565378229,2.2849571441375076,2.3588782134751693,0.6300000000000004,0.1500000000000341,2.8863636363633662,1.2790697674417344,0.6818181818182112,4.062499999999897,3.807692307692303,3.5833333333332544,1.8000000000001706,1.3749999999996003,1.3076923076920386,1.1249999999999112,0.21999999999999886,6.943482693988703,1.3700547021441642,0.48443887020901144,0.20528817904973917,0.125,0.2814070351758781,0.425,0.055,0.195,0.255,0.255,0.3316582914572849,0.425,0.07035175879396952,0.08999999999999997,0.03482834594230051,-0.5156948962940018,-0.15220701606844755,-0.659981401208503,-0.659981401208503,0.39271459675575426,0.06601174607594071,0.6415870864822374,0.7020654216156386,0.7020654216156386,-0.03965459939939994,-1.7562143159691772,0.5538798237675662,0.5538798237675662,-0.001439513226583811,0.3824139184837147,0.06,0.06,0.2964824120603001,0.1809045226130645
D,2,60,6,Reflectance RED,0.21999999999999886,-1.367268875507337,0.7977528089887559,0.38228738103857307,0.28000000000000114,1.1239649855165146,-0.3120882871942513,-0.4386349325346317,5.042867336879565,2.3794690760405386,2.661875558571136,0.6299999999999955,0.15000000000000568,2.8636363636366076,1.2727272727272845,0.6818181818182112,4.062499999999223,3.8076923076919504,3.583333333333136,1.8000000000001706,1.3749999999996003,1.3076923076920386,1.1250000000000222,0.21999999999999886,4.131881012179907,3.8221737334203283,0.17343048856849883,0.07357964398116462,0.12562814070351702,0.2814070351758793,0.425,0.055,0.19597989949748654,0.2562814070351747,0.2562814070351747,0.3316582914572849,0.425,0.07035175879396952,0.08542713567839402,0.03206820337390457,-0.5173457435353914,-0.15229977233896297,-0.6624546989912166,-0.6624546989912166,0.39590125554949085,0.0653583834912296,0.6707736314373682,0.7039844217907393,0.7039844217907393,-0.04323125474714144,-1.7624138540644259,0.4839729402305982,0.4839729402305982,-0.000746440184045536,0.46745901531229095,0.06,0.06,0.2964824120603001,0.1809045226130645
D,2,60,6,Transmittance IR,0.21608040201005269,-1.2761350971906378,0.7977528089887641,0.4040474526962487,0.29648241206030157,0.06516817197022862,-0.5926808018843375,-0.3748422294336647,0.7541556732683672,1.3547691400498239,-0.6029551332443237,0.648241206030149,0.15500000000002956,2.9999999999998677,1.372093023255734,0.7209302325579535,4.124999999999334,3.8148148148146745,3.708333333333136,1.9500000000000426,1.437499999999889,1.3076923076922626,1.2499999999989342,0.21608040201005269,-2.7986858967078247,4.808358117883769,0.13398956929677885,0.057443887092172824,0.12060301507537632,0.285,0.4271356783919578,0.05,0.19095477386934587,0.2512562814070345,0.2512562814070345,0.3316582914572849,0.4271356783919578,0.07035175879396952,0.09045226130653228,0.061748060009967604,-0.4883175139345802,-0.15046808528878333,-0.6269043159993336,-0.6269043159993336,0.347285627765789,0.06784315140477404,0.3522109614055986,0.654589764888172,0.654589764888172,-0.027310081745646135,-1.6238893699532437,1.9504937848323838,1.9504937848323838,-0.00014496900722769322,-0.5541835668462439,0.06030150753768816,0.06030150753768816,0.3,0.18
D,2,60,6,Transmittance RED,0.21827411167513205,-1.2280094047899621,0.9543814432989777,0.4372796664353432,0.3115577889447238,1.0932770639749712,-0.5315164384759161,-0.5416486345132723,8.608777452791646,3.8511517853960227,4.49920130451358,0.6607692307692432,0.15920398009949982,3.000000000000523,1.4186046511629875,0.7272727272727639,4.062499999999996,3.851851851851421,3.666666666666509,2.0500000000000993,1.4375000000000555,1.307692307692295,1.1249999999999112,0.21827411167513205,-2.8623783395147226,133.44258336330904,0.004895873386593769,0.0020786108385510453,0.1194029850746274,0.2864321608040188,0.43,0.045226130653266396,0.19047738693467292,0.25814111261872524,0.25814111261872524,0.34170854271356876,0.44278606965174333,0.07070707070707032,0.09343015390898168,0.06099488160710256,-0.4742854505573081,-0.10623851089849415,-0.561352919016788,-0.561352919016788,0.3644889300205467,-0.06874676752447534,0.39359103264120693,0.6951935229715753,0.6951935229715753,-0.13351338753182324,-1.5935352147457498,1.9672173799427113,1.9672173799427113,-5.067838928280112e-06,0.7630773480301986,0.065,0.065,0.2985074626865622,0.1829547167914769
D,2,60,7,Reflectance GREEN,0.23000000000000398,-1.0174166276350418,1.0666666666666667,0.44968607861417875,0.3819095477386871,0.5087976292139023,-0.17826106475659675,-1.0648742536619575,3.9619775563409485,2.910749846763971,1.0525848991877271,0.6850000000000014,0.22499999999999432,2.9782608695651756,1.652173913043532,0.9782608695651758,3.8285714285711085,3.600000000000682,3.3333333333336843,2.347826086956672,2.0,1.8125000000000777,1.4999999999997868,0.23000000000000398,-5.189071503008281,28.51053679855132,0.0251264138689985,0.01048557939286849,0.11557788944723565,0.3919597989949731,0.545,0.045,0.1809045226130645,0.31,0.34673366834170694,0.46,0.5764447236180891,0.075,0.21000000000000002,0.047405339191794585,-0.32403069899661485,-0.10891502348876567,-0.06498085561175966,-0.09034278212962944,0.2018972702847221,-0.02768982284825747,0.8217389352434032,0.9528653030510934,0.9270879589097896,-0.8634937003226404,-1.2183769184787034,0.6778853776688423,0.6778853776688423,-1.8606796464975235e-05,0.4155631825982643,0.1256281407035179,0.1658291457286425,0.32,0.22444029850746003
D,2,60,7,Reflectance IR,0.22999999999999687,-1.008808744853452,1.0666666666666667,0.45301252274271464,0.3849999999999909,0.48417137502708996,-0.13940686159037863,-1.0480299035994924,4.547141602838905,3.088033377112314,1.4548626647646583,0.6884422110552755,0.22500000000002274,2.978260869565728,1.6739130434782958,0.9782608695652362,3.8285714285714025,3.600000000000682,3.37037037037069,2.347826086957005,2.000000000000079,1.8125000000001665,1.5000000000000089,0.22999999999999687,-440.67903021028815,1.2577278056928982,0.5700386103153179,0.23754053886851645,0.11557788944723565,0.3919597989949731,0.5477386934673342,0.045,0.18,0.3065326633165815,0.34673366834170694,0.45728643216080356,0.575,0.075,0.2110552763819086,0.038444999974272795,-0.32215294943964345,-0.10996588802613032,-0.067876224497157,-0.09135079660981835,0.19691273207391607,-0.02198547093824317,0.8605931384096214,0.9408165809503711,0.9177626066391347,-0.850923159120973,-1.20600154556653,0.5272779410125681,0.5272779410125681,-0.0005779574922422225,0.3951509606933264,0.12562814070351702,0.1658291457286425,0.3216080402010036,0.22613065326633064
D,2,60,7,Reflectance RED,0.2300000000000182,-1.009098695731034,1.0666666666666667,0.45494760686722574,0.38693467336682325,0.5119480120428603,-0.13092085339669007,-1.0425681868086394,4.763119206282125,3.158399139705705,1.609189034273857,0.6884422110552755,0.22613065326632492,2.97826086956536,1.6739130434783576,0.9782608695652365,3.8285714285712706,3.5999999999999432,3.37037037037069,2.347826086957833,2.027777777777585,1.8125000000001499,1.4999999999999645,0.2300000000000182,19.43159091857749,3.3202115146989186,0.21621291017612052,0.09010720748571917,0.11557788944723565,0.3919597989949731,0.5477386934673342,0.045,0.18,0.3065326633165815,0.34673366834170694,0.4572864321608085,0.575,0.07035175879397154,0.2110552763819086,0.03641939936113727,-0.32212898071010365,-0.11143695872105391,-0.07033060260501929,-0.0923295365762646,0.1965983929374347,-0.021551716135696078,0.86907914660331,0.9391599198747949,0.9168303694115603,-0.8467080801646364,-1.2048817376856324,0.4973871268166496,0.4973871268166496,-0.00024315863770905637,0.4288004882023328,0.12562814070351702,0.16582914572864244,0.3216080402010036,0.22613065326633064
D,2,60,7,Transmittance IR,0.2261306532663392,-0.951756908497983,1.0666666666666667,0.4799276131120763,0.41500000000002046,-0.11189606875605983,-0.21054516781388394,-0.9604522985250488,1.0546162195407756,2.0377380388554425,-0.9733760941135315,0.7085427135678771,0.2361809045226131,3.133333333333335,1.8444444444441594,1.0444444444444052,3.885714285714703,3.733333333333207,3.5925925925924522,2.6086956521738056,2.052631578947396,1.9375000000000555,1.5454545454566124,0.2261306532663392,-2.3165506559501927,6.813962466093182,0.10232620491575739,0.04296069967609395,0.11055276381909497,0.3919597989949731,0.5477386934673342,0.04,0.175,0.3,0.345,0.46,0.5778894472361844,0.07035175879397004,0.22000000000000003,0.06813345461459358,-0.30594236049782886,-0.10742748823728446,-0.06912954910214553,-0.09939413099024308,0.1775262211806089,-0.024557016254648234,0.7891802352337685,0.8821412216007853,0.8529315327276425,-0.782791378442449,-1.1293257333090034,1.0694056377260335,1.0694056377260335,-5.217671674998073e-05,-0.20912164455883742,0.125628140703517,0.17085427135678316,0.3266331658291458,0.23
D,2,60,7,Transmittance RED,0.22885572139302568,-0.9362416755318419,1.1166193357204497,0.5025961036751099,0.43765547263680016,0.9520659834852062,-0.18092627221195412,-1.011705596441014,9.573367160872614,4.683952224519858,4.575223480924377,0.7216721271690238,0.24257425742574584,3.134848484848555,1.8809523809523057,1.0434782608695392,3.857142857142816,3.8275862068965365,3.6314814814815266,2.6956521739128503,2.1,1.9285714285716895,1.4999999999998521,0.22885572139302568,-2.469649837293863,233.51868286225056,0.002954909401176396,0.001287401214297787,0.10880829015544323,0.3869346733668334,0.5223880597014932,0.03482587064676609,0.16836734693877728,0.285,0.3468362219259554,0.4595959595959554,0.5642883095649031,0.07088653027739443,0.21662180691686567,0.06487307887001002,-0.35196994471498577,-0.045704602599534336,-0.01881682690643217,-0.247701896686169,0.29076253537844204,-0.19329781081879488,0.8185923206875187,0.918987489194629,0.7002659604619084,-0.6733258123071999,-1.2145058281683199,1.0505035609948266,1.0505035609948266,-1.5590131921559051e-06,0.6500298004899475,0.1111111111111101,0.1733683572438869,0.3432835820895532,0.2323232323232327
D,2,90,5,Reflectance GREEN,0.2462686567164426,-1.6330123394493337,1.2400000000000002,0.36388266643529543,0.22556390977449972,1.0407710315999834,-0.37757811663762136,-1.524692245040072,7.539905307439054,3.759804422943465,3.784627877965992,0.4060150375940052,0.14925373134327788,1.6562499999999654,0.9374999999997113,0.6060606060604965,3.6249999999996447,1.7499999999997158,3.222222222222012,1.0666666666666778,1.000000000000237,1.000000000000142,1.0,0.2462686567164426,2.246077683364477,58.98022984019126,0.011046574113597715,0.00556734606676836,0.14285714285714152,0.3308270676691769,0.518796992481187,0.059701492537312016,0.23308270676692008,0.3157894736842143,0.3157894736842143,0.4104477611940288,0.5820895522388077,0.08955223880596992,0.09701492537313615,0.03537170388299824,-0.8558124793566831,0.1976741947556229,-0.5466496312789982,-0.5466496312789982,0.9958970541403454,-0.26947792968489565,0.552552253117808,1.0820608842045287,1.0820608842045287,-0.5424258425508077,-2.627376453914679,0.5391474352951601,0.5391474352951601,-0.0005152123974806828,0.4760862511882932,0.0820895522388075,0.0820895522388075,0.30827067669173297,0.1492537313432832
D,2,90,5,Reflectance IR,0.24626865671642661,-1.6288177168022258,1.2399999999999916,0.36292028752660455,0.22556390977449972,0.935653385689755,-0.3000258197142266,-1.5128281546950795,6.554980122411014,3.4128933523150717,3.144191105464397,0.4029850746268673,0.14925373134328002,1.6363636363636365,0.9375000000000555,0.6060606060605832,3.6249999999998814,1.6999999999999929,3.210526315789449,1.0666666666667046,1.0000000000004736,1.000000000000142,1.0,0.24626865671642661,1.2173281220814718,2.2046311556082263,0.2943270739752803,0.1485772496936618,0.14285714285713846,0.3308270676691769,0.518796992481187,0.059701492537312016,0.23308270676692008,0.3157894736842109,0.3157894736842109,0.4104477611940288,0.5820895522388045,0.08955223880596992,0.09701492537313615,0.028115527976519075,-0.8509872093737405,0.19303541620480455,-0.5554339663800857,-0.5554339663800857,0.9889546358833904,-0.2628227267608057,0.6583843527743339,1.077530075730934,1.077530075730934,-0.5202448825682915,-2.615886162147647,0.3446252126119718,0.3446252126119718,0.0011781619828728589,0.3930233173191281,0.0820895522388075,0.0820895522388075,0.30827067669173297,0.1492537313432836
D,2,90,5,Reflectance RED,0.2462686567164426,-1.6246335933037621,1.2399999999999916,0.36519532794195675,0.23134328358208575,0.9540615320411966,-0.27182416497581263,-1.4958469671192418,6.865453483234542,3.5241108055538404,3.347204370422461,0.398496240601471,0.14925373134328307,1.6060606060606177,0.9393939393938298,0.6060606060605748,3.5200000000000955,1.6500000000000141,3.210526315789584,1.0666666666667046,1.0,1.0000000000000089,1.0,0.2462686567164426,0.9981483613603226,6.027035378464761,0.10783733131700361,0.05438225984641194,0.14285714285713846,0.3308270676691769,0.518796992481187,0.052631578947369057,0.23308270676692008,0.3157894736842109,0.3157894736842109,0.4104477611940288,0.5820895522388045,0.0895522388059704,0.09701492537313615,0.025531148426017558,-0.8471760165189404,0.19100045585862152,-0.555945264466111,-0.555945264466111,0.9841445563633645,-0.2615330656612078,0.6947441157296472,1.0703975885796444,1.0703975885796444,-0.5152918623600363,-2.608984199489226,0.29508849626945505,0.29508849626945505,0.0002881421253042334,0.3995797596790749,0.0820895522388075,0.0820895522388075,0.3082706766917293,0.1492537313432832
D,2,90,5,Transmittance IR,0.2462686567164426,-1.610967628465362,1.2400000000000393,0.3720958014938337,0.23134328358209066,0.7769628165090594,-0.7412145314160881,-1.4874741991886042,3.0086267172094963,2.1458197536023307,0.8628069636071656,0.3909774436090396,0.14925373134328612,1.5757575757576827,0.9393939393939107,0.6060606060606009,3.5200000000000102,1.600000000000057,3.263157894736905,1.0666666666667992,1.0,1.0,1.0,0.2462686567164426,-3.6642030798121192,4.658324296326407,0.13911608118308502,0.07041489245583318,0.14285714285713846,0.3358208955223801,0.5187969924812091,0.052631578947369057,0.23308270676692008,0.3157894736842143,0.3157894736842143,0.4104477611940288,0.5820895522388169,0.08955223880597088,0.09701492537313615,0.07009430597859616,-0.8426491467453693,0.19366896145653328,-0.5486790331158268,-0.5486790331158268,0.9751947824901388,-0.26462547508691286,-0.06261251110364811,1.0641659213507466,1.0641659213507466,-0.513681629493475,-2.5865524077023965,-11.684713795272764,-11.684713795272764,-0.0002794723385001912,0.2568094703839982,0.0820895522388075,0.0820895522388075,0.30827067669173297,0.1492537313432832
D,2,90,5,Transmittance RED,0.2462686567164426,-1.5908932036210577,1.2448979591836906,0.3802072717859751,0.23134328358209558,1.1336551393956456,-0.7407426198718472,-1.4702535807174288,9.178249731858157,4.318841870385034,4.820369162758728,0.6716417910447681,0.14925373134331396,2.6388888888887574,0.9393939393939393,0.6060606060606009,3.560000000000173,3.3333333333347768,3.1052631578949415,1.066666666666995,1.0000000000004736,1.000000000000142,1.0,0.2462686567164426,-3.6029721300421937,97.74437176656927,0.006679590433048546,0.003367590542068416,0.14179104477612806,0.33333333333333504,0.5187969924812313,0.05223880597015245,0.23308270676692008,0.3157894736842143,0.3157894736842143,0.4104477611940299,0.5864661654135158,0.08955223880597182,0.09774436090225264,0.07038628427118976,-0.836031409810083,0.19604981407684435,-0.5426141633358954,-0.5426141633358954,0.9647429270525343,-0.2767262137576631,-0.056281882375556626,1.053434601035365,1.053434601035365,-0.5071596548977652,-2.5543803272058025,-12.820023003933263,-12.820023003933263,-1.3142789593575132e-05,0.5856645490875787,0.08208955223881098,0.08208955223881098,0.3082706766917462,0.14503816793893104
D,2,90,6,Reflectance GREEN,0.253731343283584,-1.4311404225495779,1.2037037037037235,0.342153359332923,0.2556390977443452,0.8774300493567027,-0.4374872470895549,-1.0497573368588125,6.847230879003694,3.762757848624546,3.0506687560610732,0.6865671641791138,0.16417910447761067,2.705882352941261,1.0000000000000417,0.6470588235293724,3.4230769230769904,3.380952380951698,2.0526315789473193,1.187500000000011,1.1666666666665089,1.0999999999999006,1.1666666666665089,0.253731343283584,5.508973516051791,42.56442730547359,0.017662918152189948,0.007980911569519343,0.14179104477612206,0.33834586466167266,0.5298507462686554,0.04511278195488679,0.23308270676692008,0.3208955223880521,0.3208955223880521,0.417910447761193,0.5864661654135158,0.09701492537313408,0.10447761194030047,0.041547675001631715,-0.7283229796023865,0.05279903011715949,-0.5542842042346865,-0.5542842042346865,0.7239006018865906,-0.15631802249815135,0.492841558363194,0.8798883803054333,0.8798883803054333,-0.32611328028748376,-2.1544911936216167,0.6817270124439302,0.6817270124439302,-6.876357356666674e-05,0.30278880004190484,0.08208955223881098,0.08208955223881098,0.27067669172932074,0.10526315789473362
D,2,90,6,Reflectance IR,0.253731343283582,-1.4268849569822089,1.2000000000000548,0.34258427207315123,0.2556390977443452,0.7423660440967353,-0.34747471793754925,-1.0427305784637835,5.948204858510445,3.4344997942668005,2.5124056854240564,0.6917293233082333,0.16417910447761067,2.705882352941422,1.0000000000000417,0.6470588235294019,3.4230769230769904,3.3809523809525195,2.0,1.187500000000011,1.1666666666665089,1.0999999999998864,1.1666666666665089,0.253731343283582,2.0399216119042065,1.7057954623658778,0.44138501601573793,0.19914996480652716,0.14179104477612053,0.33834586466165817,0.5298507462686441,0.04511278195488679,0.23308270676691759,0.3157894736842278,0.3157894736842278,0.41791044776118413,0.5864661654135158,0.09701492537313408,0.10447761194030047,0.03301331180748725,-0.7286494315648944,0.054260643154322594,-0.5522008038882911,-0.5522008038882911,0.7222776412738502,-0.15339561317819167,0.6103176541996524,0.8751433633037589,0.8751433633037589,-0.32128753746005206,-2.1488236799745994,0.42256479063155106,0.42256479063155106,0.017254350425338454,0.19713450324576615,0.08270676691729067,0.08270676691729067,0.27611940298506804,0.10526315789473362
D,2,90,6,Reflectance RED,0.253731343283584,-1.4236667430391676,1.2000000000001787,0.3439687939612327,0.2556390977443558,0.7642403494145299,-0.31735758562388794,-1.0408377252415442,6.270773365419837,3.570234050059441,2.7094520873979766,0.6917293233082482,0.16417910447761067,2.705882352941422,1.0000000000000835,0.6470588235294019,3.3846153846157043,3.380952380952376,1.9473684210526787,1.187500000000011,1.1666666666665089,1.0999999999998864,1.1666666666665089,0.253731343283584,1.6017518081359372,4.653707763584192,0.16211790229068446,0.0730600238457205,0.14179104477612206,0.33834586466165817,0.5298507462686441,0.04511278195488679,0.23308270676691759,0.3208955223880521,0.3208955223880521,0.41791044776118413,0.5864661654135158,0.09701492537313408,0.10447761194030047,0.030251229838563168,-0.7252230333347982,0.05133194887900371,-0.5489918668219723,-0.5489918668219723,0.7167915273133936,-0.15130197938407464,0.6479792351175684,0.8744707182396437,0.8744707182396437,-0.32564876459166137,-2.1409724486102486,0.3629058052395625,0.3629058052395625,0.001117781008266652,0.21288995789448045,0.08270676691729067,0.08270676691729067,0.27067669172931497,0.10447761194030047
D,2,90,6,Transmittance IR,0.253731343283584,-1.3865550526227344,1.2222222222221941,0.3546415020480964,0.261194029850746,0.507247971779776,-0.7571209649998223,-1.0066557545604027,2.2209414562005834,2.0534058697752293,0.17156953910229267,0.7067669172932323,0.1641791044776284,2.7941176470583615,1.0294117647058578,0.6470588235294155,3.4230769230769904,3.4761904761904474,2.7999999999999714,1.187500000000011,1.1666666666665089,1.0999999999999788,1.1666666666665089,0.253731343283584,-3.069163164158824,4.333261575259083,0.1732346176171262,0.07846847841041288,0.14179104477611904,0.3432835820895441,0.5298507462686666,0.04477611940298591,0.2330827067669151,0.3208955223880521,0.3208955223880521,0.4179104477611941,0.5895522388059562,0.09701492537313408,0.10526315789473586,0.07264424473903246,-0.712542105830548,0.05282570348901995,-0.5432889481405156,-0.5432889481405156,0.6949213357296953,-0.15301203734550237,0.013616271454545973,0.8574100998629246,0.8574100998629246,-0.3138063981379255,-2.082155974425814,50.28997910888444,50.28997910888444,-0.000237137002069785,-0.021619126676947875,0.08270676691729245,0.08270676691729245,0.2761194029850739,0.10526315789473362
D,2,90,6,Transmittance RED,0.253731343283584,-1.366899936678329,1.2222222222222046,0.36350322558303716,0.2631578947368196,0.9819185649854353,-0.742734899215717,-0.9835273164013483,8.996559384978646,4.577521364880978,4.412435213246597,0.716417910447757,0.16541353383453056,2.8235294117645484,1.0303030303030016,0.6470588235294339,3.4230769230770997,3.4761904761909017,2.8460526315792523,1.187500000000222,1.153846153846238,1.0909090909095607,1.1428571428574328,0.253731343283584,-3.111422424926335,101.82431869690649,0.007326794246544367,0.0033312743343286056,0.14179104477611904,0.3432835820895441,0.533834586466149,0.04477611940298496,0.23308270676691012,0.3157894736842143,0.3157894736842143,0.41791044776119746,0.5895522388059781,0.09701492537313434,0.10526315789473811,0.07209109167675856,-0.7040495180678064,0.055548100950883306,-0.5340253626888982,-0.5340253626888982,0.6767461661915295,-0.16668721228983058,0.03680154023877298,0.8307438000645838,0.8307438000645838,-0.30015411233936823,-2.044751438605337,15.774408774354988,15.774408774354988,-1.0008364803308982e-05,0.43185004127109405,0.08270676691729421,0.08270676691729421,0.27407407407407236,0.10447761194029603
D,2,90,7,Reflectance GREEN,0.26119402985069434,-1.322327174796466,1.0158730158730636,0.3637497221995691,0.2835820895522453,0.8496152524226435,-0.4506308910298247,-0.6628580881698019,6.254404670237067,3.5069611086249743,2.750052857135061,0.5820895522388053,0.1716417910447929,2.2571428571428456,1.1142857142857499,0.6764705882352572,3.346153846153981,2.59090909090848,2.1999999999992044,1.3749999999999973,1.1538461538464566,1.090909090909279,1.0,0.26119402985069434,12.679911355146736,36.44302054099191,0.02584532834052797,0.009578028497186496,0.14179104477612206,0.34328358208955867,0.5223880597015023,0.04477611940298591,0.23308270676691012,0.31343283582090137,0.31343283582090137,0.4135338345864634,0.5671641791044642,0.09701492537313408,0.11194029850746241,0.04477349361687469,-0.626133318926549,-0.09455410110099122,-0.5858675902171174,-0.5858675902171174,0.5183457339214589,-0.07388686584724669,0.4984848795241055,0.7339855545324141,0.7339855545324141,-0.15002746892944138,-1.8394886172477232,0.7540800349763583,0.7540800349763583,-5.3164610210220143e-05,0.27735387650105897,0.0820895522388062,0.0820895522388062,0.2164179104477652,0.05263157894736793
D,2,90,7,Reflectance IR,0.2556390977443879,-1.3162192128098908,1.0158730158730562,0.36610988558512114,0.2857142857142735,0.7079744411813966,-0.36015484995785474,-0.6619581343618869,5.496939524477581,3.2663301297884155,2.2316435326985404,0.5820895522388142,0.17164179104478924,2.2647058823526756,1.1176470588234113,0.6764705882352572,3.346153846153981,2.5909090909087387,2.1999999999999575,1.3750000000000222,1.1538461538464566,1.0909090909095607,1.0,0.2556390977443879,2.8699869039905037,1.4746425522592292,0.6287507584899052,0.23404969953083424,0.14179104477612206,0.34328358208955867,0.5223880597015023,0.04477611940298591,0.23134328358210368,0.31343283582090137,0.31343283582090137,0.41044776119405496,0.5671641791044761,0.09701492537313408,0.11194029850746252,0.03581348986252054,-0.6233642373224833,-0.09538025512882417,-0.5821214383570497,-0.5821214383570497,0.5128898811117494,-0.07228280177431955,0.6081819243945348,0.734867332073136,0.734867332073136,-0.1514796293234787,-1.8298256513639886,0.48530664583623795,0.48530664583623795,-0.004142933009237588,0.12350552714574792,0.0820895522388075,0.0820895522388075,0.2164179104477652,0.05223880597015245
D,2,90,7,Reflectance RED,0.26119402985069434,-1.3170260682849668,1.0158730158730562,0.36617945843045696,0.2857142857142735,0.7499893194404716,-0.33076005790377283,-0.6507253378647382,5.887711585748194,3.3921083834380346,2.503048628074333,0.5820895522388142,0.17164179104478924,2.2571428571430543,1.114285714285937,0.6764705882352572,3.346153846153981,2.5454545454558137,2.1999999999998012,1.3750000000000222,1.1538461538464566,1.090909090909279,1.0,0.26119402985069434,2.1227094205585297,4.119957890904243,0.22840388216114335,0.08498123002417816,0.14179104477612206,0.34328358208955867,0.5223880597015023,0.04477611940298591,0.23308270676691012,0.31343283582090137,0.31343283582090137,0.4135338345864535,0.5671641791044761,0.09701492537313434,0.11194029850746241,0.03280878751230444,-0.6227038931482642,-0.0960897268312367,-0.587743054666011,-0.587743054666011,0.5125039676861128,-0.0716268300581113,0.6433875747586404,0.7280875752402478,0.7280875752402478,-0.14026352390254576,-1.8302830777135195,0.4172755893512988,0.4172755893512988,-0.006553886930728614,0.17053057408946426,0.08208955223880662,0.08208955223880662,0.2164179104477652,0.05263157894736681
D,2,90,7,Transmittance IR,0.255639097744377,-1.2721612800260602,1.032258064516076,0.37672302905827026,0.29104477611941326,0.5089691826114862,-0.7249517439674433,-0.613783013895931,1.9628623125839781,2.095205828076832,-0.10626172463164185,0.601503759398482,0.17910447761194284,2.3235294117648673,1.1470588235292642,0.6857142857142672,3.3846153846153006,2.6818181818177353,2.2999999999997014,1.4374999999995337,1.2307692307692244,1.1818181818179938,1.0,0.255639097744377,-2.9454300229156436,4.897325642482562,0.18867495613292962,0.07034858218624929,0.14179104477611904,0.34328358208955867,0.5223880597015023,0.04477611940298508,0.23134328358209386,0.31343283582090137,0.31343283582090137,0.41353383458647996,0.5671641791044882,0.09701492537313615,0.11194029850746479,0.07293164063831689,-0.6070861892357429,-0.09630909200940618,-0.5719315941671292,-0.5719315941671292,0.4854625282760347,-0.07105261373145227,0.13978419015582233,0.7011749218269422,0.7011749218269422,-0.1300360152184605,-1.75912147826198,4.849635327430192,4.849635327430192,-0.00018306352585664034,-0.07897544424165187,0.0820895522388075,0.0820895522388075,0.2180451127819534,0.05263157894736793
D,2,90,7,Transmittance RED,0.25757575757577195,-1.2476619455380182,1.0655737704917974,0.3773336556095062,0.2985074626865855,1.0177344828752368,-0.6900698864103583,-0.5930487780275746,9.578238982491456,4.767979151237505,4.720556168070696,0.6194029850746381,0.17910447761194284,2.3973684210525277,1.1470588235293706,0.6944444444444181,3.307692307692476,2.761904761904611,2.315789473684226,1.4117647058827463,1.2307692307692475,1.1818181818179938,1.000000000000812,0.25757575757577195,-3.085295088271608,133.58853847857085,0.006847314170110087,0.0026073369697776233,0.14074074074074022,0.3458646616541247,0.5263157894736905,0.0444444444444437,0.23134328358208958,0.31343283582089637,0.31343283582089637,0.417910447761193,0.5714285714285783,0.09701492537313615,0.11278195488721746,0.07130146809483243,-0.5974583620330816,-0.08707087065508876,-0.5676201782191612,-0.5676201782191612,0.46774453150163575,-0.10079466521807359,0.1791032057792235,0.6846552291780335,0.6846552291780335,-0.12129946377923126,-1.7096226376096815,3.7596862412948506,3.7596862412948506,-6.727313965516681e-06,0.46774846840249484,0.0820895522388075,0.0820895522388075,0.22388059701492716,0.05185185185185207
D,2,120,5,Reflectance GREEN,0.28000000000000114,-1.5047938619505334,2.37499999999991,0.16567870204419538,0.2599999999999909,0.7290480606896902,-0.33431623903917373,-1.2632775137491001,8.790497370637516,5.10579485502147,3.672285286247213,0.3599999999999984,0.17000000000001592,1.2857142857142567,0.928571428571443,0.6071428571428608,1.6666666666666496,1.0588235294117634,1.0624999999999445,1.0,1.0,1.0000000000012632,1.0,0.28000000000000114,0.9730602948626772,81.57105805716547,0.007177410005921829,0.004756981148986125,0.16,0.39,0.6262626262626205,0.05,0.2626262626262753,0.36363636363636287,0.36363636363636287,0.48,0.7070707070707031,0.11,0.12,0.029295017579723116,-0.9148493597557592,0.13135515994769043,-0.5534082122236449,-0.5534082122236449,0.8626448848296235,-0.1835011933198803,0.6184770062490206,0.9512946208236763,0.9512946208236763,-0.4046045936000392,-2.3677678997938063,0.14945780940956782,0.14945780940956782,2.295240979044486e-05,0.17505197237312559,0.09999999999999998,0.09999999999999998,0.3939393939393903,0.2
D,2,120,5,Reflectance IR,0.28000000000000114,-1.501212749164212,2.4782608695652173,0.17179442247635146,0.259999999999998,0.663944739887737,-0.2558730830949616,-1.2453800163223092,7.743962484830146,4.669728413114155,3.0639840647181136,0.36000000000001364,0.17000000000001592,1.2857142857142785,0.9285714285714866,0.6071428571428608,1.6190476190479284,1.058823529412227,1.0624999999999334,1.0,1.0,1.1249999999991118,1.0,0.28000000000000114,0.6063921903621918,3.075875862819977,0.1847957671686067,0.12634913216981555,0.16,0.39,0.6262626262626385,0.05,0.2626262626262753,0.3636363636363655,0.3636363636363655,0.48,0.7070707070707094,0.11,0.12,0.02242214564013604,-0.9116826373135974,0.1278686863897429,-0.5567225742104339,-0.5567225742104339,0.858369811355117,-0.14712022696221255,0.717556520289093,0.9437073023536091,0.9437073023536091,-0.3929237497505125,-2.3614487422157393,0.09959806154118753,0.09959806154118753,0.0002911100028530971,0.11030738882758628,0.09999999999999998,0.09999999999999998,0.41,0.21
D,2,120,5,Reflectance RED,0.28000000000000114,-1.4992769452097185,2.4782608695652173,0.17320797829524082,0.26000000000000145,0.6652150403414943,-0.232030559779959,-1.2461990738478426,7.838980403067769,4.727209390513311,3.1167736444846272,0.36000000000001364,0.17000000000001592,1.2857142857142785,0.9285714285714866,0.6071428571428608,1.619047619047574,1.1176470588227032,1.062499999999939,1.0,1.0,1.1249999999987566,1.0,0.28000000000000114,0.5218718269603538,8.283487483395856,0.06862427032754706,0.04693676545931992,0.16,0.39,0.63,0.05,0.26262626262627153,0.3636363636363655,0.3636363636363655,0.48,0.7171717171717106,0.11,0.12,0.02033399730945967,-0.908874408261729,0.12640173718690467,-0.5564905070900252,-0.5564905070900252,0.8540625810580416,-0.16678274962668105,0.7465612724646149,0.9434583787036839,0.9434583787036839,-0.38748773752826077,-2.3528452987571975,0.0867908711653685,0.0867908711653685,8.788771085631113e-05,0.10991525131158297,0.09999999999999998,0.09999999999999998,0.41,0.21
D,2,120,5,Transmittance IR,0.28000000000000114,-1.4983467148637581,2.4782608695652173,0.17481616253458632,0.259999999999998,0.6466482116492533,-0.8068617453758566,-1.2487437251025455,6.133245585847616,3.9571809199700394,2.1688075370738398,0.36000000000001364,0.17000000000001592,1.2857142857142785,0.9285714285714866,0.6071428571428608,1.619047619047574,1.1176470588234113,1.0624999999999445,1.0,1.0,1.1249999999991118,1.0,0.28000000000000114,-6.254572145781626,5.937842229525362,0.09553826039633992,0.06548464273504509,0.16,0.39,0.63,0.05,0.262626262626264,0.36363636363636287,0.36363636363636287,0.48,0.8383838383838307,0.11,0.12,0.07062443300910978,-0.9088055461685128,0.12790032710174998,-0.5552573052276821,-0.5552573052276821,0.8526841632989152,-0.22246763356059035,-0.14179886289166105,0.9456680763003118,0.9456680763003118,-0.39185586665260674,-2.34934160505879,-2.0716889157428353,-2.0716889157428353,-0.00028569551925701025,0.09491333998007973,0.09999999999999998,0.09999999999999998,0.41,0.21
D,2,120,5,Transmittance RED,0.28000000000000114,-1.4946384400962827,2.1153846153848095,0.1615601361286332,0.26020833333338844,0.7580554794254584,-0.8149074331301988,-1.2246369311974257,9.604471203818171,5.5063500149856095,4.11597459226547,0.36000000000001364,0.17000000000007276,1.285714285714329,0.9285714285714866,0.6071428571429731,1.7619047619047425,1.0588235294118826,1.0624999999999556,1.0,1.0000000000002842,1.0,1.0,0.28000000000000114,-5.832737219891344,116.39561065163792,0.0053305359552645,0.003339970583503652,0.16,0.39,0.63,0.05,0.26262626262626776,0.3636363636363655,0.3636363636363655,0.48,0.7575757575757506,0.11,0.12121212121212009,0.07147574197357953,-0.9091926353035165,0.132285691318572,-0.5583247711654438,-0.5583247711654438,0.8521741205729307,-0.2279736914053544,-0.16017744276447016,0.9359311802790169,0.9359311802790169,-0.37747749282419235,-2.3449679080887336,-1.7289315365276603,-1.7289315365276603,-1.4212574340330543e-05,0.20424975304876924,0.09999999999999998,0.09999999999999998,0.3668417862194365,0.1708585858585851
D,2,120,6,Reflectance GREEN,0.30303030303031175,-1.6372795312512758,1.9677419354838135,0.07928226307695674,0.27272727272725183,0.6061782908271847,-0.39223318380460187,-1.4040723053732864,8.701168585447618,5.430710427901499,3.237082529191826,0.3737373737373776,0.18000000000000682,1.2333333333333019,0.9,0.5937500000000056,1.9130434782608714,1.0526315789473213,1.0000000000000313,1.0,1.0,1.0,1.0,0.30303030303031175,1.2934805849941684,71.064739614285,0.011205921259972126,0.006158847424755452,0.18,0.42,0.67,0.07,0.29,0.4,0.4,0.52,0.79,0.11000000000000001,0.13,0.031183236451991135,-0.9568153034121223,0.12931695447398184,-0.5878526698885795,-0.5878526698885795,0.9493836300525744,-0.23018298897697323,0.5390372062084474,1.0459123597326716,1.0459123597326716,-0.4531265720505254,-2.5843803390268447,0.09829308879786743,0.09829308879786743,4.600737879622241e-05,0.01675926770271663,0.10101010101010592,0.10101010101010592,0.29,0.08
D,2,120,6,Reflectance IR,0.30303030303031175,-1.633836285450728,1.9062500000000002,0.07777690780359767,0.2700000000000955,0.5260272384058384,-0.30073896108797393,-1.3950930420802654,7.293522802264574,4.807449399984419,2.490485226008707,0.37373737373738025,0.18000000000000682,1.2333333333333019,0.9000000000000427,0.5999999999998106,1.8695652173910626,1.055555555555503,1.000000000000011,1.000000000000203,1.0,1.0,1.0,0.30303030303031175,0.7621614498339961,2.775788478029666,0.2881051520396084,0.15702502242244312,0.18,0.42,0.67,0.07,0.29,0.4,0.4,0.52,0.79,0.10999999999999999,0.13,0.023920692140128614,-0.9545840483185692,0.12722869908281975,-0.5897545562582638,-0.5897545562582638,0.945670327057918,-0.22278802371904904,0.6605864836008478,1.0395793584710136,1.0395793584710136,-0.45147071156916446,-2.57782606527799,0.05757949643079785,0.05757949643079785,0.0004363940360676595,-0.0633586102535531,0.10101010101010156,0.10101010101010156,0.28282828282828026,0.08
D,2,120,6,Reflectance RED,0.30303030303031175,-1.6292422156068027,1.9062500000000002,0.08045424548365476,0.27272727272725183,0.534355619738738,-0.2719917933449657,-1.3942957402787894,7.510573669518008,4.919062515195845,2.6037810979987968,0.37999999999999545,0.18000000000000682,1.2333333333333019,0.9000000000000853,0.5999999999998106,1.863636363636374,1.0000000000005984,1.0000000000000835,1.0,1.0,1.0,0.9999999999997868,0.30303030303031175,0.6472758568300547,7.5125868477071585,0.10630311727022503,0.05806969307490631,0.18,0.42,0.67,0.07,0.29,0.4,0.4,0.52,0.79,0.10999999999999999,0.13,0.021691752251918717,-0.9508886067797317,0.12435579755725519,-0.5804026219467384,-0.5804026219467384,0.9407904981946049,-0.22317508335297592,0.6967854372142723,1.041487679471615,1.041487679471615,-0.45865048834706224,-2.5677846009783796,0.05073539091413587,0.05073539091413587,0.0001260005583613863,-0.04148095732441645,0.10999999999999999,0.10999999999999999,0.28282828282828026,0.08
D,2,120,6,Transmittance IR,0.30303030303031175,-1.6303000612173848,1.9062500000000002,0.0793888984897044,0.27272727272725183,0.5107117597603716,-0.854066850417237,-1.3826364659852184,5.413956123111742,3.89808888226412,1.5131050604884018,0.37999999999999545,0.18000000000000682,1.2333333333333019,0.9000000000000853,0.5999999999999243,1.8636363636363562,1.0000000000005984,1.0,1.0,1.0,1.0,0.9999999999988631,0.30303030303031175,-5.385214531476125,6.085931619052857,0.1309509093779655,0.07158932626048506,0.18,0.42,0.67,0.07,0.29,0.4,0.4,0.52,0.79,0.10999999999999999,0.13,0.06774380944852401,-0.9530002914330324,0.12901994800315505,-0.5897211194685601,-0.5897211194685601,0.9432722819222038,-0.2314068550149716,-0.25896316829230076,1.0338118391339757,1.0338118391339757,-0.4441458903432298,-2.5723023307989132,-0.5558210951144584,-0.5558210951144584,-0.00026409931762755876,-0.08231139735581083,0.10101010101010302,0.10101010101010302,0.28282828282828026,0.08
D,2,120,6,Transmittance RED,0.30612244897961105,-1.6256274164380824,2.0999999999999774,0.09479651406456208,0.2772277227722527,0.6270342146436919,-0.8446030057782021,-1.4165932619149795,9.56698432745788,5.91141618744442,3.648847595934342,0.37999999999999545,0.18181818181812961,1.2333333333333019,0.9000000000002653,0.5999999999996969,1.8260869565214168,1.0526315789473213,1.0000000000003344,1.0,1.0,1.0,1.0,0.30612244897961105,-5.406427821980893,132.3570345316095,0.005716363494661,0.0033305877053987935,0.18,0.42,0.6767676767676706,0.060606060606062225,0.2929292929292902,0.4,0.4,0.52,0.7878787878787842,0.11111111111111009,0.12871287128712988,0.06736509687888174,-0.9521073850675517,0.13614761528786917,-0.5833367211015124,-0.5833367211015124,0.9488647497392584,-0.2694128564617884,-0.24916060466285117,1.0498252098242147,1.0498252098242147,-0.4627314267943521,-2.5701135144170424,-0.6953718533322604,-0.6953718533322604,-1.2226886497283013e-05,0.038093017042144794,0.10679611650485718,0.10679611650485718,0.3030303030303002,0.09
D,2,120,7,Reflectance GREEN,0.3299999999999841,-1.6641378377576201,2.3571428571429336,0.08377336717677865,0.2929292929293109,0.472557893238046,-0.4480616683964836,-1.3374659672833094,8.32515613985153,5.714886094634011,2.608864425410762,0.40999999999996817,0.19000000000005457,1.242424242424292,0.9062499999999944,0.5757575757576697,1.6043478260868376,1.0500000000000995,1.055555555555503,1.0714285714280785,1.0909090909087387,1.1111111111097076,1.0,0.3299999999999841,1.8943198133921704,61.16311856852103,0.013646670833868925,0.008007786020927034,0.19,0.45,0.71,0.08,0.31313131313131026,0.4242424242424203,0.4242424242424203,0.55,0.81,0.12,0.1313131313131301,0.0338474481276225,-0.9293572296247931,0.06857232904350809,-0.616102470109769,-0.616102470109769,0.9090302786532339,-0.22681515361681115,0.46731957119618084,1.0452279801624513,1.0452279801624513,-0.42676269779916515,-2.571508622021356,0.1401849267604789,0.1401849267604789,0.00020749764014774016,-0.15142520493632888,0.10999999999999999,0.10999999999999999,0.3,0.08
D,2,120,7,Reflectance IR,0.3299999999999841,-1.6622209293420507,2.357142857142857,0.08126206132719395,0.2929292929292822,0.4076074286467025,-0.34060367440516753,-1.3412875940712907,6.971641138040442,5.017173806338125,1.95768100596278,0.40999999999996817,0.19000000000002615,1.24242424242426,0.9062499999999944,0.5757575757576697,1.8333333333332815,1.050000000000008,1.055555555555503,1.0714285714280785,1.090909090908997,1.0000000000004263,1.0,0.3299999999999841,0.9826288682768485,2.5370311785326676,0.3323591775006904,0.19355259366892835,0.19,0.45,0.71,0.08,0.31313131313131026,0.4242424242424203,0.4242424242424203,0.55,0.81,0.12,0.1313131313131301,0.025658410312593843,-0.9313011503267493,0.07064447093201706,-0.6219322587686599,-0.6219322587686599,0.9105548191905943,-0.22652683557669295,0.6124458262526187,1.0433166482764504,1.0433166482764504,-0.4216033093380033,-2.5717694683569943,0.0747536708906424,0.0747536708906424,0.0006912219103612038,-0.20751739338579653,0.10999999999999999,0.10999999999999999,0.3,0.08
D,2,120,7,Reflectance RED,0.3299999999999841,-1.6597964430982084,2.357142857142857,0.08273278433921005,0.2929292929292976,0.41160468188474447,-0.3106655803689209,-1.3356297202644436,7.157347120890426,5.116637075413025,2.0352206690801227,0.40999999999996817,0.19000000000005457,1.2424242424242764,0.9062500000000188,0.5757575757576697,1.8333333333334814,1.0500000000000995,1.055555555555503,1.0714285714276435,1.090909090908997,1.0000000000005684,1.0,0.3299999999999841,0.8278862994728118,6.854292011899666,0.12300197719302536,0.07165947000265539,0.19,0.45,0.71,0.08,0.3131313131313125,0.4242424242424203,0.4242424242424203,0.55,0.81,0.12,0.1313131313131301,0.023427358771359607,-0.9276112102729539,0.06766530848608299,-0.6168374805486105,-0.6168374805486105,0.9056553200089662,-0.22440099870019392,0.6508353871137528,1.0422647016405393,1.0422647016405393,-0.42553243892626524,-2.5640837692317384,0.06478011367444853,0.06478011367444853,0.00019092933580876692,-0.20944924698570513,0.10999999999999999,0.10999999999999999,0.3,0.08
D,2,120,7,Transmittance IR,0.3299999999999841,-1.647281013183088,2.357142857142857,0.08446654834711909,0.2999999999999545,0.3889829249074114,-0.8900664601573414,-1.3177061714604095,5.020377019402014,3.9733378878967125,1.0363529484001939,0.4099999999999966,0.19191919191918785,1.242424242424292,0.9090909090908151,0.5937499999999528,1.8750000000000517,1.0500000000000267,1.055555555555503,1.000000000000379,1.090909090908997,1.0000000000000533,1.0,0.3299999999999841,-4.378441155487783,6.461769373844421,0.13030750880241154,0.07605915984395606,0.19,0.45,0.71,0.07070707070707108,0.3131313131313125,0.4242424242424203,0.4242424242424203,0.55,0.81,0.12,0.13496349634963778,0.0668152525665181,-0.9263676785649928,0.07170429445347251,-0.6180406076406783,-0.6180406076406783,0.9015930429431482,-0.2378713551948764,-0.29673229630982745,1.0310339801465351,1.0310339801465351,-0.41256933113475514,-2.5475629152546784,-0.53777810834163,-0.53777810834163,-0.0002233615499061304,-0.23212254197850285,0.10999999999999999,0.10999999999999999,0.3,0.08
D,2,120,7,Transmittance RED,0.3299999999999983,-1.629582495461392,2.576923076923077,0.09255525228720149,0.29896907216490254,0.49597196621894096,-0.8656104144800036,-1.327753855700848,9.737118066966136,6.486253652329945,3.184230856755617,0.4129163362410735,0.1938775510204659,1.2499999999999556,0.9090909090908151,0.5937499999997224,1.4999999999999991,1.0526315789473213,1.055555555555503,1.000000000000785,1.0,1.000000000000142,1.0,0.3299999999999983,-4.590338060487667,153.78048219815304,0.005276905131034807,0.0032080284487995643,0.19191919191919016,0.45454545454545037,0.7171717171717106,0.07070707070707007,0.31683168316830634,0.42574257425742656,0.42574257425742956,0.56,0.8118811881188192,0.11881188118811987,0.13592233009709098,0.06567879875577584,-0.9229839458591615,0.08149770557929426,-0.6057998420333846,-0.6057998420333846,0.8974362717390423,-0.2770784436053616,-0.26103903110026727,1.0213043496833163,1.0213043496833163,-0.4100266410016651,-2.531255475563598,-0.6516540060997776,-0.6516540060997776,-9.483528953471238e-06,-0.11232299447241256,0.10999999999999999,0.10999999999999999,0.31,0.07920792079207992
D,3,60,5,Reflectance GREEN,0.20999999999999375,-1.5179152827044091,0.75,0.42344612761735567,0.2121212121211895,1.0525104613288674,-0.40999780700639266,-1.0975045501901217,4.896565963471964,2.507996751418484,2.3731107294382037,0.5929648241206037,0.1306532663316531,2.833333333333325,1.023809523809519,0.6190476190476835,4.290322580645262,3.7200000000000273,3.5652173913042833,1.263157894737283,1.1333333333336113,1.1666666666665089,1.0000000000007105,0.20999999999999375,9.282476838689215,39.314310634055325,0.019952028914237443,0.0067251844502775795,0.12060301507537632,0.275,0.42,0.0502512562814069,0.195,0.2562814070351747,0.2562814070351747,0.3316582914572849,0.46231155778894595,0.07035175879396952,0.08040201005025091,0.03724366505325829,-0.6774203938541659,0.04396016383667266,-0.5782398481345729,-0.5782398481345729,0.7350225420846057,-0.11727117334970905,0.5313204874774355,0.9373340330566415,0.9373340330566415,-0.3640621079195122,-2.256930827090285,0.822633629785852,0.822633629785852,-5.3995102006407465e-05,0.46446555950674384,0.065,0.065,0.22,0.09547738693467293
D,3,60,5,Reflectance IR,0.20999999999997954,-1.5165538530295994,0.7499999999999934,0.4213700400076662,0.21105527638191657,1.040029549380486,-0.3306559372064428,-1.09204741031365,5.371081564583525,2.6339354093578304,2.736780002105605,0.5929648241206037,0.1306532663316531,2.8333333333332207,1.0238095238095362,0.6190476190476577,4.290322580645125,3.7200000000000273,3.5652173913041465,1.3333333333330175,1.1333333333336113,1.1666666666665089,1.0000000000007105,0.20999999999997954,2.652734139552953,1.7237854533420736,0.45733899023497804,0.15381334166270388,0.12060301507537632,0.27638190954773745,0.42211055276381715,0.05025125628140681,0.19597989949748654,0.2562814070351747,0.2562814070351747,0.3316582914572849,0.4623115577889426,0.07035175879396952,0.08040201005025091,0.030033998022355794,-0.6791175905775284,0.04503276791137882,-0.5792425125401265,-0.5792425125401265,0.7366268091458423,-0.10571177174987129,0.6320065322242668,0.9349224017223585,0.9349224017223585,-0.3526164642254782,-2.25256877912798,0.539707726859476,0.539707726859476,-0.005500254712880161,0.46011314052719887,0.065,0.065,0.22,0.09547738693467293
D,3,60,5,Reflectance RED,0.21000000000000085,-1.5088267766717727,0.7500000000000088,0.4277032263684747,0.21500000000003183,1.0594022026265688,-0.3163485903921396,-1.0764705455789647,5.543782456280008,2.6894162615373616,2.850532126871957,0.5979899497487399,0.1306532663316531,2.8333333333334685,1.023809523809536,0.6190476190476577,4.290322580645125,3.759999999999991,3.5652173913049174,1.263157894737283,1.1333333333336113,1.1666666666665089,1.0000000000007105,0.21000000000000085,2.3705170300079477,4.325730158701327,0.18299736469716088,0.06144831096254233,0.12060301507537632,0.27638190954773745,0.42211055276381715,0.05025125628140681,0.19597989949748654,0.2562814070351747,0.2562814070351747,0.3316582914572849,0.4623115577889426,0.07035175879396952,0.08040201005025091,0.028975750007579047,-0.6713291498701934,0.04183600950693507,-0.5779769039567498,-0.5779769039567498,0.7253564656748958,-0.10434379581758274,0.6499979951994777,0.9274620023217286,0.9274620023217286,-0.34674699847621443,-2.2336758418910527,0.5123985637734448,0.5123985637734448,-0.0049870688763112665,0.4837147362922221,0.065,0.065,0.21608040201004927,0.09547738693467293
D,3,60,5,Transmittance IR,0.20999999999997954,-1.4360307454081562,0.7523809523809524,0.44002083699428035,0.21999999999999886,0.10878226839895112,-0.6487334068010222,-1.0405918514336792,0.9828866006833819,1.426496653022651,-0.43555282545604973,0.6080402010049835,0.1349999999999909,2.904761904762253,1.0476190476192797,0.6428571428570752,4.322580645161361,3.800000000000182,3.6521739130436557,1.3157894736842262,1.1333333333339901,1.1217948717951964,1.0000000000000888,0.20999999999997954,-3.164603569062881,3.9712544648320547,0.19478404729511578,0.06637960414000893,0.12,0.275,0.42211055276381715,0.05,0.19095477386934587,0.2562814070351747,0.2562814070351747,0.3316582914572849,0.465,0.07035175879396952,0.08500000000000002,0.06010128422097988,-0.6542017650448703,0.04621842835580527,-0.5438612354639261,-0.5438612354639261,0.6910764853433837,-0.10825405150691776,0.1917055303764191,0.8945306032987539,0.8945306032987539,-0.3469817883072355,-2.126118854961722,4.182425162282804,4.182425162282804,-0.00022412680094767006,-0.43201299908546786,0.06532663316582885,0.06532663316582885,0.22110552763818994,0.09547738693467293
D,3,60,5,Transmittance RED,0.20895522388059884,-1.3884909194848136,0.7523809523809524,0.45209888114742613,0.22500000000002274,1.2597740570241307,-0.6368452581481373,-1.0084218672210055,5.6731354686133315,2.727817340718081,2.9574116203952254,0.6130653266331767,0.13567839195978923,2.951219512195234,1.0731707317073205,0.6428571428572976,4.387096774193377,3.7999999999999776,3.6956521739131,1.3684210526315475,1.2,1.076923076923447,1.0000000000003553,0.20895522388059884,-3.1266677330713417,87.40326871940232,0.008904883738710553,0.003014050048656898,0.11557788944723649,0.27638190954773745,0.42211055276381715,0.045226130653266125,0.19095477386934587,0.2562814070351747,0.2562814070351747,0.335,0.465,0.07035175879396953,0.08500000000000002,0.06015122327177866,-0.6383404631537345,0.04499615818513671,-0.5192203433851493,-0.5192203433851493,0.6645114943561924,-0.1294519342715908,0.2095595292454076,0.8692408648563286,0.8692408648563286,-0.3536547315370427,-2.0550018591023433,3.9349292928615744,3.9349292928615744,-9.860138697984081e-06,0.7321399777114481,0.06532663316582885,0.06532663316582885,0.22,0.09
D,3,60,6,Reflectance GREEN,0.21608040201005269,-1.3461452612910412,0.7777777777777778,0.39317819720695746,0.28643216080401535,0.9651748745935376,-0.39822298282788615,-0.3959536669891893,3.8247532438582126,2.0798899640127018,1.7538943426448128,0.6331658291457212,0.15075376884421185,2.9080338266386234,1.3218816067654227,0.6976744186046565,4.09374999999919,3.807692307692476,3.5833333333332544,1.9000000000000852,1.375000000000444,1.3076923076922573,1.1250000000000666,0.21608040201005269,-19.74840836644227,30.393200770390777,0.021775754984000167,0.00909659187093076,0.125,0.2814070351758781,0.42,0.050251256281408245,0.195,0.25125628140703404,0.25125628140703404,0.32663316582915825,0.42,0.07035175879396952,0.08585858585858878,0.04212485606334381,-0.5019920493832304,-0.1602086307667613,-0.661145860866985,-0.661145860866985,0.37078196767714733,0.07048562497342548,0.5757358366861964,0.6863891353573592,0.6863891353573592,-0.02469868678758845,-1.7175047061166893,0.7674143703915528,0.7674143703915528,-3.9277603210200536e-05,0.3045357331547993,0.06,0.06,0.2914572864321605,0.18
D,3,60,6,Reflectance IR,0.21608040201005269,-1.3416804687121198,0.7777777777777699,0.3933210878441876,0.28643216080401535,1.057792064630352,-0.329571801175799,-0.3836436928826654,4.681895269823649,2.2809718041182974,2.4030203050686696,0.6331658291457212,0.15075376884421926,2.9302325581394673,1.3255813953488003,0.6976744186046615,4.0937500000000036,3.8461538461535603,3.5833333333332544,1.8999999999995452,1.375000000000444,1.3076923076922762,1.1250000000000666,0.21608040201005269,6.5513425642537815,1.3407362263364173,0.4931906387695688,0.20567389093747757,0.125,0.2814070351758781,0.42,0.05025125628140752,0.19095477386934723,0.25125628140703404,0.25125628140703404,0.3266331658291489,0.42,0.07035175879396952,0.08999999999999997,0.03472950944008871,-0.5002787269701481,-0.1600324122650795,-0.6630953858439754,-0.6630953858439754,0.3661337718169331,0.07454367311503349,0.6531208168555351,0.679646206350548,0.679646206350548,-0.017895282794388172,-1.7076886875979824,0.5493904717123476,0.5493904717123476,-0.0014629692588610207,0.40435439176360455,0.06030150753768816,0.06030150753768816,0.29145728643215946,0.18
D,3,60,6,Reflectance RED,0.21608040201005269,-1.3355445335343386,0.7777777777777699,0.3969782428216929,0.29000000000002046,1.1190041692538981,-0.31106202962096097,-0.37389282259997836,4.974951248005508,2.3469535272413697,2.626280609264442,0.6349999999999909,0.15075376884422612,2.9302325581395,1.3255813953489541,0.6976744186046665,4.093750000000094,3.8461538461536655,3.6249999999998814,1.9000000000000852,1.375000000000444,1.3076923076923035,1.1250000000000666,0.21608040201005269,4.767172465510939,3.490711085326917,0.18953682626647933,0.07904655555129764,0.12060301507537804,0.2814070351758781,0.42,0.05025125628140681,0.19095477386934653,0.25125628140703404,0.25125628140703404,0.32663316582915125,0.42,0.07035175879396952,0.09000000000000002,0.03302448996614389,-0.4951705756312258,-0.1615918854208615,-0.6567249891329583,-0.6567249891329583,0.36009168016787974,0.07576903606456048,0.6738056314723897,0.6772260505896561,0.6772260505896561,-0.020220261716526237,-1.695682110426279,0.5105444315544307,0.5105444315544307,-0.0006739792684733394,0.46633396818421186,0.06030150753768816,0.06030150753768816,0.29145728643215946,0.18
D,3,60,6,Transmittance IR,0.21608040201005269,-1.2504649186950525,0.7802197802197802,0.41493010332446534,0.3050000000000068,-0.04063251011023164,-0.5823309817071036,-0.31502461937974785,0.6804890029387645,1.3422732207978827,-0.6610548013975359,0.6532663316582656,0.15577889447236223,3.0232558139534667,1.418604651162734,0.7209302325581453,4.156249999999993,3.814814814815076,3.7499999999997633,2.049999999999881,1.4375000000003997,1.2857142857148658,1.2499999999989342,0.21608040201005269,-2.7655607544450027,4.461059361587356,0.14635842359452794,0.06176488849480866,0.12,0.2814070351758781,0.42211055276381715,0.05,0.19,0.25,0.25,0.33,0.42211055276381715,0.07035175879396952,0.09045226130653276,0.06244251371415463,-0.47072486845657247,-0.15833870270105316,-0.6241605983628098,-0.6241605983628098,0.3185099082721854,0.07713384369305028,0.3720019060603694,0.6232551180489982,0.6232551180489982,-0.0002644670477221304,-1.569128368944808,1.8967238620137687,1.8967238620137687,-0.00015278744105238904,-0.675942573907129,0.06030150753768816,0.06030150753768816,0.2964824120603001,0.1758793969849257
D,3,60,6,Transmittance RED,0.21608040201005269,-1.2050154047681803,0.7912087912087913,0.43181919956540726,0.3199999999999932,1.4687922636716468,-0.5585695064494729,-0.30317790014736035,6.888116496826431,2.916989313656616,3.6687568476080914,0.6633165829145664,0.160804020100502,3.068181818181821,1.476190476190431,0.7441860465116337,4.1249999999995115,3.888888888889193,3.7200000000000273,2.149999999999261,1.5000000000000888,1.3571428571429731,1.1111111111116725,0.21608040201005269,-2.8060420628011733,118.48048831999947,0.00556140588909753,0.0023338735945935708,0.1161616161616151,0.28140703517588617,0.42211055276381715,0.045226130653266125,0.18952736318407737,0.25,0.25,0.3316582914572873,0.425,0.07035175879396978,0.0954773869346729,0.06173493796327604,-0.4545589420180848,-0.15179256185206294,-0.6107627109828286,-0.6107627109828286,0.30119903094286116,0.04593426128528219,0.3945493757913003,0.5962544443843542,0.5962544443843542,0.0052913618080348696,-1.5013496467618723,1.8565038899320663,1.8565038899320663,-5.576569890162695e-06,0.8451934947153176,0.06030150753768838,0.06030150753768838,0.2964824120603086,0.17543969849246188
D,3,60,7,Reflectance GREEN,0.22999999999998977,-1.0137994160724908,1.0549450549450579,0.4544964914617442,0.38190954773869384,0.5186455511822341,-0.1760635429887087,-1.0608749180210415,3.844037024569406,2.8564143172858962,1.0100977571499532,0.6850000000000023,0.22110552763821736,2.97826086956536,1.673913043478089,0.9777777777777974,3.8285714285712706,3.655172413793122,3.3703703703704795,2.347826086956715,1.9999999999998421,1.8125000000000777,1.4999999999994316,0.22999999999998977,-5.451768936962994,26.700023615148613,0.026948603940561117,0.011171556582077899,0.11557788944723565,0.3869346733668324,0.5427135678391936,0.045,0.18,0.3065326633165859,0.3417085427135712,0.455,0.5728643216080376,0.07035175879397004,0.2060301507537679,0.04709480136214711,-0.3224290143132962,-0.10842457422855253,-0.06717199957649392,-0.0866233893596571,0.19759210029059454,-0.025548202583542203,0.8239364570112913,0.9477993386977772,0.9282422118239424,-0.8620069851819907,-1.2109644254748075,0.6738372418375931,0.6738372418375931,-2.011639041711809e-05,0.43578662368516474,0.13,0.16499999999999998,0.3165829145728674,0.2211055276381923
D,3,60,7,Reflectance IR,0.22999999999998977,-1.0097072813474726,1.0444444444444445,0.45707926233287394,0.3850000000000051,0.47721595511727954,-0.1381709623179488,-1.048593399579802,4.500370678346997,3.051925846653148,1.4503884498814141,0.6884422110552755,0.22499999999999964,3.0000000000001235,1.6888888888888047,0.9782608695652362,3.8285714285714514,3.689655172413871,3.407407407407232,2.347826086957833,2.0,1.8125000000001332,1.4999999999999645,0.22999999999998977,378.8273622994988,1.2424545827083833,0.5780990004176236,0.23992907422431303,0.11557788944723565,0.3869346733668324,0.5427135678391936,0.045,0.1804522613065348,0.3065326633165815,0.345,0.45728643216080195,0.5728643216080376,0.07035175879396999,0.21000000000000002,0.03842517564407988,-0.3212046128035555,-0.10933289070051319,-0.06943603199076559,-0.08950298702990575,0.19714177152308565,-0.021519433546327953,0.8618290376820512,0.9412035961027407,0.9202790005274161,-0.8511494835290607,-1.206884281820318,0.5285691425324115,0.5285691425324115,-0.0005904352094194196,0.3879980899180151,0.12562814070351702,0.16499999999999998,0.32,0.225
D,3,60,7,Reflectance RED,0.23000000000000043,-1.0055914119151885,1.0444444444444445,0.4595048768771859,0.38693467336685183,0.5236701949019098,-0.1291764114084636,-1.040160082030446,4.7727167624847,3.137342524202499,1.6271274785140395,0.6884422110552755,0.22613065326629636,2.9999999999999982,1.6956521739130166,0.9782608695652362,3.8285714285714416,3.600000000000682,3.407407407407464,2.391304347826113,2.0,1.8125000000001332,1.4999999999999867,0.23000000000000043,19.061822469297713,3.241961961689728,0.2217581718347118,0.09211144552340245,0.11557788944723565,0.3869346733668324,0.5427135678391936,0.045,0.1809045226130645,0.3065326633165815,0.34170854271357604,0.45728643216080195,0.5728643216080376,0.07035175879396982,0.21000000000000002,0.03653257065619094,-0.32050281223218247,-0.11056445485963293,-0.07181221711969205,-0.09043044293280564,0.19563610202343218,-0.02093059910604705,0.8708235885915364,0.9344389319490837,0.9150577886783331,-0.8434373430824996,-1.2005558396054616,0.5011654566834918,0.5011654566834918,-0.0002501284514177163,0.43294143163623333,0.1256281407035179,0.16499999999999998,0.32,0.225
D,3,60,7,Transmittance IR,0.22613065326633072,-0.953249368062124,1.055555555555545,0.4837275263380994,0.4170854271356685,-0.1610216201160095,-0.20907840321022964,-0.9628197318641536,0.7603325603712239,1.9358868531481233,-1.164344526589899,0.7085427135678444,0.23618090452261142,3.133333333333371,1.8444444444444557,1.0444444444444052,3.914285714285473,3.7333333333332392,3.592592592592936,2.6086956521740046,2.052631578947321,1.9375000000000555,1.5454545454566124,0.22613065326633072,-2.3204830308777624,6.366238858484246,0.11048505175502735,0.04591880857394372,0.11055276381909497,0.39,0.5427135678391962,0.04,0.175,0.3,0.34170854271356843,0.45728643216080195,0.575,0.07035175879396985,0.21608040201004927,0.06829589816659207,-0.30447578933702113,-0.10662726475327708,-0.06981105355737413,-0.09756503546169826,0.17776796461692554,-0.024264777678507134,0.7908415493702816,0.8830273135243076,0.8551601444670192,-0.7854240245581159,-1.1308180742797234,1.0750053631180183,1.0750053631180183,-5.634725439468659e-05,-0.2607260327871867,0.125628140703517,0.16999999999999998,0.32663316582914426,0.23
D,3,60,7,Transmittance RED,0.22727272727271944,-0.9190256162440738,1.042781972088767,0.5099528953510855,0.43939393939393767,1.0397379454540114,-0.17728999434586387,-0.9546762448554031,8.79537490569096,4.245380217492105,4.389123256773576,0.7196059113300363,0.24257425742574926,3.1590909090909767,1.933333333333207,1.0666666666666371,3.8840336134454065,3.8000000000005305,3.6362433862433177,2.7826086956518945,2.105263157894773,1.9411764705882057,1.5555555555551783,0.22727272727271944,-2.4640753191425846,210.73310782220113,0.003444603714688462,0.0013921369613404296,0.11,0.3898717948717946,0.5295573675014594,0.0355329949238575,0.17,0.29145728643215996,0.3424960624015576,0.4556639487478189,0.5628140703517562,0.07070707070707005,0.22,0.06581951008484593,-0.30665017624950874,-0.08965176392793736,-0.04850693611856924,-0.1465878842235803,0.20448120180965743,-0.08330317034306528,0.8214520052921085,0.8784202466594119,0.7878239846421775,-0.7600149512556367,-1.1289693405956,1.074136702705422,1.074136702705422,-1.6250235512071069e-06,0.9047165348021973,0.12,0.17412935323383166,0.32,0.2115882442515654
D,3,90,5,Reflectance GREEN,0.24626865671642661,-1.599643709321785,1.2156862745097956,0.36673471634093335,0.23134328358209066,1.0417884962022095,-0.37357947454595397,-1.417060332372517,7.561448430005369,3.7544540367669015,3.807530951130832,0.6865671641790934,0.14925373134328002,2.7878787878784905,0.939393939393908,0.6060606060605963,3.6249999999998814,3.599999999999318,3.210526315789584,1.066666666666995,1.0000000000000593,1.0,1.0,0.24626865671642661,2.3051740008823685,51.6096739012349,0.012812854456134368,0.0063372188693797986,0.14285714285713846,0.33082706766916276,0.5149253731343161,0.052631578947371305,0.23308270676691012,0.31343283582090137,0.31343283582090137,0.4060150375939898,0.5746268656716403,0.08955223880596992,0.09701492537313615,0.03584476430333649,-0.8218697806567983,0.16576986553386597,-0.5551990666126321,-0.5551990666126321,0.9394563539358887,-0.230191595439626,0.5630463676031908,1.0395580339490913,1.0395580339490913,-0.48791596821345445,-2.54066722326123,0.5304405623175491,0.5304405623175491,-0.0006743481778202326,0.471268333550133,0.08208955223880597,0.08208955223880597,0.30597014925373056,0.14925373134328004
D,3,90,5,Reflectance IR,0.24626865671641862,-1.6040434920558873,1.2156862745097956,0.36494763891322207,0.23134328358209066,0.945597127689177,-0.2857093164498156,-1.409343602753971,6.669328590793326,3.435371481663033,3.2413914476245096,0.3834586466165391,0.14925373134327788,1.5937499999997224,0.9393939393939107,0.6060606060606009,3.6250000000007403,1.6315789473684525,3.1578947368421133,1.066666666666995,1.0000000000000149,1.0,1.0,0.24626865671641862,1.130697992477837,2.2653001689850463,0.2912922837621401,0.1443213706925151,0.14285714285713846,0.3283582089552439,0.5149253731343161,0.052631578947369057,0.23134328358210368,0.31343283582090137,0.31343283582090137,0.40601503759398117,0.5746268656716403,0.08955223880596992,0.09701492537313615,0.027323938145541224,-0.8243046387980263,0.16580224591753087,-0.5591395172545429,-0.5591395172545429,0.9423262203448696,-0.22953977495876415,0.6785030785535506,1.0332616527352418,1.0332616527352418,-0.47657744773928035,-2.5463271001355756,0.32057380581071154,0.32057380581071154,0.000979516754643297,0.38134796010759364,0.08208955223880575,0.08208955223880575,0.30597014925373056,0.14925373134328004
D,3,90,5,Reflectance RED,0.24626865671641862,-1.5981245568587001,1.2156862745097956,0.368933240932777,0.23134328358209558,0.9503420320918142,-0.27715223789171844,-1.3946402287409034,6.782131739792583,3.481071353693504,3.3003157913001755,0.691729323308291,0.1492537313432869,2.8181818181814893,0.9393939393939511,0.6060606060606009,3.625000000000028,3.6499999999986925,3.1578947368421133,1.066666666666995,1.0000000000000149,1.000000000000071,1.0,0.24626865671641862,1.0687966195208964,5.554533426273573,0.11892251848878826,0.058897750807022003,0.14179104477612806,0.3283582089552439,0.514925373134327,0.052631578947369057,0.23134328358210368,0.31343283582090137,0.31343283582090137,0.4060150375939725,0.5746268656716526,0.08955223880597182,0.09701492537313615,0.02654043222111754,-0.8182174406541127,0.16322548457737335,-0.5631765811740718,-0.5631765811740718,0.9332297161072992,-0.22715373570735542,0.6903099245132956,1.031801380933303,1.031801380933303,-0.4696251919036321,-2.5309861354282117,0.3084502096567644,0.3084502096567644,0.0003543402510351746,0.3767648507224861,0.0820895522388062,0.0820895522388062,0.30597014925373056,0.14925373134328004
D,3,90,5,Transmittance IR,0.24626865671641798,-1.584791708603663,1.2156862745098633,0.37436188065863557,0.23134328358209558,0.8310732088201169,-0.7357970632716999,-1.4013261540949935,2.90941871262235,2.108549631050406,0.8008690815719439,0.6940298507462866,0.1492537313432869,2.8181818181819747,0.9393939393939916,0.6060606060606009,3.666666666666509,3.6500000000002983,3.2105263157905446,1.0666666666667992,1.0,1.0000000000000178,1.0,0.24626865671641798,-3.607236056634252,4.26973977669271,0.1544322881617911,0.07662377910871654,0.14179104477612206,0.33082706766916276,0.514925373134327,0.052631578947369057,0.23134328358209386,0.31343283582090137,0.31343283582090137,0.4060150375939898,0.5746268656716769,0.08955223880597016,0.09701492537313615,0.07092425974495754,-0.8134961100520998,0.16493748929707666,-0.5544915056740208,-0.5544915056740208,0.92469420673483,-0.22846943554294866,-0.024758934802552892,1.0341663475575704,1.0341663475575704,-0.47877308236717825,-2.509282941228831,-28.914971628981615,-28.914971628981615,-0.0003004311971817086,0.27014938006753675,0.0820895522388075,0.0820895522388075,0.30597014925373706,0.1492537313432832
